Time,Sample,Type
0:00.189,68,+
0:00.378,136,/
0:01.139,410,/
0:01.936,697,/
0:02.747,989,/
0:03.625,1305,/
0:04.483,1614,/
0:05.308,1911,/
0:06.114,2201,/
0:06.914,2489,/
0:07.725,2781,/
0:08.533,3072,/
0:09.369,3373,/
0:10.256,3692,/
0:11.106,3998,/
0:11.914,4289,/
0:12.719,4579,/
0:13.517,4866,/
0:14.344,5164,/
0:15.183,5466,/
0:16.022,5768,/
0:16.900,6084,/
0:17.722,6380,/
0:18.514,6665,/
0:19.308,6951,/
0:20.117,7242,/
0:20.969,7549,/
0:21.825,7857,/
0:22.664,8159,/
0:23.536,8473,/
0:24.342,8763,/
0:25.119,9043,/
0:25.925,9333,/
0:26.750,9630,/
0:27.611,9940,/
0:28.458,10245,/
0:29.286,10543,/
0:30.125,10845,/
0:30.978,11152,/
0:31.706,11414,/
0:32.528,11710,/
0:33.383,12018,/
0:34.250,12330,/
0:35.089,12632,/
0:35.906,12926,/
0:36.731,13223,/
0:37.531,13511,/
0:38.325,13797,/
0:39.161,14098,/
0:40.022,14408,/
0:40.883,14718,/
0:41.703,15013,/
0:42.503,15301,/
0:43.389,15620,/
0:44.139,15890,/
0:44.953,16183,/
0:45.811,16492,/
0:46.675,16803,/
0:47.522,17108,/
0:48.314,17393,/
0:49.111,17680,/
0:49.942,17979,/
0:50.761,18274,/
0:51.592,18573,/
0:52.442,18879,/
0:53.289,19184,/
0:54.111,19480,/
0:54.903,19765,/
0:55.708,20055,/
0:56.553,20359,/
0:57.397,20663,/
0:58.236,20965,/
0:59.078,21268,/
0:59.908,21567,/
1:00.714,21857,/
1:01.508,22143,/
1:02.317,22434,/
1:03.178,22744,/
1:04.028,23050,/
1:04.861,23350,/
1:05.686,23647,/
1:06.511,23944,/
1:07.317,24234,/
1:08.117,24522,/
1:08.958,24825,/
1:09.828,25138,/
1:10.669,25441,/
1:11.492,25737,/
1:12.289,26024,/
1:13.103,26317,/
1:13.908,26607,/
1:14.719,26899,/
1:15.681,27245,/
1:16.450,27522,f
1:17.281,27821,f
1:18.092,28113,f
1:18.908,28407,f
1:19.725,28701,f
1:20.528,28990,f
1:20.925,29133,+
1:21.322,29276,N
1:22.172,29582,N
1:23.000,29880,N
1:23.781,30161,N
1:24.556,30440,N
1:25.322,30716,N
1:26.108,30999,N
1:26.914,31289,N
1:27.739,31586,N
1:28.561,31882,N
1:29.389,32180,N
1:30.183,32466,N
1:30.928,32734,N
1:31.694,33010,N
1:32.492,33297,N
1:33.319,33595,N
1:34.119,33883,N
1:34.606,34058,V
1:35.044,34216,+
1:35.486,34375,/
1:36.297,34667,/
1:37.083,34950,/
1:37.883,35238,/
1:38.711,35536,/
1:39.578,35848,/
1:40.425,36153,f
1:41.256,36452,f
1:42.097,36755,f
1:42.897,37043,f
1:43.683,37326,f
1:44.547,37637,f
1:45.353,37927,f
1:46.222,38240,f
1:47.056,38540,f
1:47.450,38682,+
1:47.844,38824,N
1:48.656,39116,N
1:49.447,39401,N
1:50.231,39683,N
1:51.047,39977,N
1:51.889,40280,N
1:52.747,40589,N
1:53.556,40880,N
1:54.325,41157,N
1:55.136,41449,f
1:55.922,41732,N
1:56.706,42014,N
1:57.544,42316,f
1:58.378,42616,N
1:59.211,42916,N
2:00.008,43203,N
2:00.781,43481,N
2:01.575,43767,N
2:02.378,44056,N
2:03.197,44351,N
2:04.028,44650,N
2:04.847,44945,N
2:05.678,45244,N
2:06.447,45521,N
2:07.219,45799,N
2:08.022,46088,N
2:08.833,46380,N
2:09.664,46679,N
2:10.494,46978,N
2:11.300,47268,N
2:12.114,47561,N
2:12.892,47841,N
2:13.656,48116,N
2:14.458,48405,N
2:15.303,48709,N
2:16.122,49004,N
2:16.925,49293,N
2:17.719,49579,N
2:18.494,49858,N
2:19.286,50143,N
2:20.053,50419,N
2:20.836,50701,N
2:21.703,51013,N
2:22.536,51313,N
2:23.325,51597,N
2:24.117,51882,N
2:24.892,52161,N
2:25.669,52441,N
2:26.456,52724,N
2:27.256,53012,N
2:28.106,53318,N
2:28.931,53615,N
2:29.703,53893,N
2:30.483,54174,N
2:31.253,54451,N
2:32.036,54733,N
2:32.831,55019,N
2:33.653,55315,N
2:34.494,55618,N
2:35.308,55911,N
2:36.089,56192,N
2:36.858,56469,N
2:37.619,56743,N
2:38.431,57035,N
2:39.247,57329,N
2:40.058,57621,N
2:40.894,57922,N
2:41.708,58215,N
2:42.475,58491,N
2:43.239,58766,N
2:44.011,59044,N
2:44.822,59336,N
2:45.661,59638,N
2:46.481,59933,N
2:47.289,60224,N
2:48.097,60515,N
2:48.864,60791,N
2:49.617,61062,N
2:50.414,61349,N
2:51.242,61647,N
2:52.075,61947,N
2:52.894,62242,N
2:53.697,62531,N
2:54.514,62825,f
2:54.914,62969,+
2:55.317,63114,/
2:56.108,63399,/
2:56.939,63698,/
2:57.806,64010,/
2:58.672,64322,/
2:59.500,64620,/
3:00.297,64907,/
3:01.122,65204,/
3:01.928,65494,/
3:02.725,65781,/
3:03.569,66085,/
3:04.433,66396,/
3:05.283,66702,/
3:06.083,66990,/
3:06.889,67280,/
3:07.717,67578,/
3:08.533,67872,/
3:09.367,68172,/
3:10.219,68479,/
3:11.078,68788,/
3:11.900,69084,/
3:12.686,69367,/
3:13.489,69656,/
3:14.317,69954,/
3:15.147,70253,/
3:15.992,70557,/
3:16.836,70861,/
3:17.678,71164,/
3:18.492,71457,/
3:19.286,71743,/
3:20.100,72036,/
3:20.953,72343,/
3:21.856,72668,/
3:22.639,72950,/
3:23.467,73248,/
3:24.289,73544,/
3:25.089,73832,/
3:25.883,74118,/
3:26.717,74418,/
3:27.583,74730,/
3:28.425,75033,/
3:29.258,75333,/
3:30.075,75627,/
3:30.889,75920,/
3:31.694,76210,/
3:32.500,76500,/
3:33.361,76810,/
3:34.222,77120,/
3:35.056,77420,/
3:35.872,77714,/
3:36.669,78001,/
3:37.483,78294,/
3:38.292,78585,/
3:39.122,78884,/
3:40.000,79200,/
3:40.856,79508,/
3:41.678,79804,/
3:42.483,80094,/
3:43.278,80380,/
3:44.106,80678,/
3:44.933,80976,/
3:45.772,81278,/
3:46.644,81592,/
3:47.486,81895,/
3:48.275,82179,/
3:49.072,82466,/
3:49.878,82756,/
3:50.725,83061,/
3:51.572,83366,/
3:52.414,83669,/
3:53.286,83983,/
3:54.106,84278,/
3:54.886,84559,/
3:55.689,84848,/
3:56.506,85142,/
3:57.367,85452,/
3:58.211,85756,/
3:59.042,86055,/
3:59.886,86359,/
4:00.694,86650,/
4:01.481,86933,/
4:02.297,87227,/
4:03.142,87531,/
4:04.017,87846,/
4:04.861,88150,/
4:05.675,88443,/
4:06.503,88741,/
4:07.303,89029,/
4:08.094,89314,/
4:08.922,89612,/
4:09.775,89919,/
4:10.647,90233,/
4:11.469,90529,/
4:12.264,90815,/
4:13.094,91114,/
4:13.906,91406,/
4:14.714,91697,/
4:15.567,92004,/
4:16.417,92310,/
4:17.275,92619,/
4:18.078,92908,/
4:18.861,93190,/
4:19.692,93489,/
4:20.506,93782,/
4:21.331,94079,/
4:22.183,94386,/
4:23.033,94692,/
4:23.867,94992,/
4:24.667,95280,/
4:25.461,95566,/
4:26.300,95868,/
4:27.142,96171,/
4:27.978,96472,/
4:28.819,96775,/
4:29.658,97077,/
4:30.467,97368,/
4:31.258,97653,/
4:32.058,97941,/
4:32.914,98249,f
4:33.775,98559,f
4:34.600,98856,f
4:35.431,99155,/
4:36.314,99473,/
4:37.064,99743,/
4:37.858,100029,/
4:38.689,100328,/
4:39.558,100641,/
4:40.403,100945,/
4:41.228,101242,/
4:42.036,101533,/
4:42.844,101824,/
4:43.647,102113,/
4:44.456,102404,/
4:45.311,102712,/
4:46.181,103025,/
4:47.019,103327,/
4:47.839,103622,/
4:48.639,103910,/
4:49.453,104203,/
4:50.267,104496,/
4:51.097,104795,/
4:51.961,105106,/
4:52.819,105415,/
4:53.636,105709,/
4:54.431,105995,/
4:55.225,106281,f
4:56.050,106578,f
4:56.889,106880,f
4:57.733,107184,/
4:58.603,107497,/
4:59.450,107802,/
5:00.244,108088,/
5:01.036,108373,/
5:01.842,108663,/
5:02.678,108964,/
5:03.522,109268,/
5:04.364,109571,/
5:05.225,109881,/
5:06.039,110174,/
5:06.825,110457,/
5:07.633,110748,/
5:08.450,111042,/
5:09.319,111355,/
5:10.172,111662,/
5:11.006,111962,/
5:11.847,112265,/
5:12.653,112555,/
5:13.439,112838,/
5:14.250,113130,/
5:15.083,113430,/
5:15.958,113745,/
5:16.806,114050,/
5:17.614,114341,f
5:18.442,114639,f
5:19.253,114931,f
5:20.097,115235,f
5:20.931,115535,f
5:21.781,115841,f
5:22.608,116139,/
5:23.436,116437,/
5:24.225,116721,/
5:25.050,117018,/
5:25.858,117309,/
5:26.667,117600,/
5:27.517,117906,/
5:28.372,118214,/
5:29.225,118521,/
5:30.031,118811,/
5:30.819,119095,/
5:31.711,119416,/
5:32.475,119691,/
5:33.311,119992,/
5:34.161,120298,/
5:35.008,120603,/
5:35.844,120904,/
5:36.636,121189,/
5:37.419,121471,/
5:38.258,121773,/
5:39.097,122075,/
5:39.944,122380,/
5:40.789,122684,/
5:41.619,122983,/
5:42.447,123281,/
5:43.294,123586,/
5:44.036,123853,/
5:44.897,124163,/
5:45.747,124469,/
5:46.575,124767,/
5:47.406,125066,/
5:48.214,125357,/
5:49.022,125648,/
5:49.819,125935,/
5:50.636,126229,/
5:51.517,126546,/
5:52.369,126853,/
5:53.194,127150,/
5:54.011,127444,/
5:54.819,127735,/
5:55.625,128025,/
5:56.436,128317,/
5:57.281,128621,/
5:58.153,128935,/
5:58.997,129239,/
5:59.800,129528,/
6:00.594,129814,/
6:01.406,130106,/
6:02.225,130401,/
6:03.058,130701,/
6:03.919,131011,/
6:04.792,131325,/
6:05.619,131623,/
6:06.408,131907,/
6:07.200,132192,/
6:08.019,132487,/
6:08.853,132787,/
6:09.692,133089,/
6:10.553,133399,/
6:11.406,133706,/
6:12.200,133992,/
6:12.989,134276,/
6:13.794,134566,/
6:14.633,134868,/
6:15.489,135176,/
6:16.331,135479,/
6:17.186,135787,/
6:18.011,136084,/
6:18.794,136366,/
6:19.592,136653,/
6:20.403,136945,/
6:21.261,137254,/
6:22.119,137563,/
6:23.017,137886,/
6:23.789,138164,/
6:24.600,138456,/
6:25.394,138742,/
6:26.203,139033,/
6:27.044,139336,/
6:27.925,139653,/
6:28.772,139958,/
6:29.586,140251,/
6:30.406,140546,/
6:31.269,140857,/
6:32.000,141120,/
6:32.825,141417,/
6:33.678,141724,/
6:34.544,142036,/
6:35.378,142336,/
6:36.175,142623,/
6:37.000,142920,/
6:37.808,143211,/
6:38.625,143505,/
6:39.478,143812,/
6:40.331,144119,/
6:41.189,144428,/
6:41.994,144718,/
6:42.781,145001,/
6:43.603,145297,/
6:44.422,145592,/
6:45.253,145891,/
6:46.114,146201,/
6:46.961,146506,/
6:47.864,146831,/
6:48.606,147098,/
6:49.389,147380,/
6:50.231,147683,/
6:51.075,147987,/
6:51.911,148288,/
6:52.761,148594,/
6:53.589,148892,/
6:54.406,149186,/
6:55.194,149470,/
6:55.986,149755,/
6:56.850,150066,/
6:57.708,150375,/
6:58.547,150677,/
6:59.383,150978,/
7:00.197,151271,/
7:01.011,151564,/
7:01.803,151849,/
7:02.617,152142,/
7:03.494,152458,/
7:04.347,152765,/
7:05.172,153062,/
7:05.981,153353,/
7:06.778,153640,/
7:07.594,153934,/
7:08.406,154226,/
7:09.244,154528,/
7:10.133,154848,/
7:10.981,155153,/
7:11.789,155444,/
7:12.583,155730,/
7:13.389,156020,/
7:14.214,156317,/
7:15.042,156615,/
7:15.892,156921,/
7:16.825,157257,/
7:17.589,157532,/
7:18.369,157813,/
7:19.164,158099,/
7:19.983,158394,/
7:20.822,158696,/
7:21.672,159002,/
7:22.528,159310,/
7:23.383,159618,/
7:24.181,159905,/
7:24.967,160188,/
7:25.767,160476,/
7:26.608,160779,/
7:27.456,161084,/
7:28.297,161387,/
7:29.150,161694,/
7:29.972,161990,/
7:30.767,162276,/
7:31.564,162563,/
7:32.381,162857,/
7:33.250,163170,/
7:34.106,163478,/
7:34.936,163777,/
7:35.772,164078,/
7:36.583,164370,/
7:37.369,164653,/
7:38.172,164942,/
7:39.006,165242,/
7:39.878,165556,/
7:40.725,165861,/
7:41.536,166153,/
7:42.369,166453,/
7:43.181,166745,/
7:43.975,167031,/
7:44.808,167331,/
7:45.661,167638,/
7:46.525,167949,/
7:47.353,168247,/
7:48.144,168532,/
7:48.964,168827,/
7:49.772,169118,/
7:50.578,169408,/
7:51.431,169715,/
7:52.281,170021,/
7:53.144,170332,/
7:53.958,170625,/
7:54.744,170908,/
7:55.575,171207,/
7:56.397,171503,/
7:57.228,171802,/
7:58.081,172109,/
7:58.925,172413,/
7:59.767,172716,/
8:00.558,173001,/
8:01.342,173283,/
8:02.181,173585,/
8:03.019,173887,/
8:03.856,174188,/
8:04.708,174495,/
8:05.542,174795,/
8:06.361,175090,/
8:07.158,175377,/
8:07.950,175662,/
8:08.808,175971,/
8:09.658,176277,/
8:10.492,176577,/
8:11.328,176878,/
8:12.139,177170,/
8:12.947,177461,/
8:13.744,177748,/
8:14.558,178041,/
8:15.439,178358,/
8:16.297,178667,/
8:17.128,178966,/
8:17.944,179260,/
8:18.750,179550,/
8:19.561,179842,/
8:20.369,180133,/
8:21.206,180434,/
8:22.086,180751,/
8:22.933,181056,/
8:23.731,181343,/
8:24.531,181631,/
8:25.342,181923,/
8:26.158,182217,/
8:26.989,182516,/
8:27.856,182828,/
8:28.731,183143,/
8:29.556,183440,/
8:30.344,183724,/
8:31.139,184010,/
8:31.956,184304,/
8:32.786,184603,/
8:33.625,184905,/
8:34.486,185215,/
8:35.394,185542,/
8:36.139,185810,/
8:36.931,186095,/
8:37.733,186384,/
8:38.575,186687,/
8:39.431,186995,/
8:40.275,187299,/
8:41.128,187606,/
8:41.956,187904,/
8:42.794,188206,/
8:43.533,188472,/
8:44.342,188763,/
8:45.203,189073,/
8:46.061,189382,/
8:46.892,189681,/
8:47.733,189984,/
8:48.547,190277,/
8:49.336,190561,/
8:50.144,190852,/
8:50.986,191155,/
8:51.856,191468,/
8:52.703,191773,/
8:53.514,192065,/
8:54.339,192362,/
8:55.139,192650,/
8:55.928,192934,/
8:56.756,193232,/
8:57.608,193539,/
8:58.481,193853,/
8:59.311,194152,/
9:00.111,194440,/
9:00.936,194737,/
9:01.744,195028,/
9:02.556,195320,/
9:03.406,195626,/
9:04.258,195933,/
9:05.119,196243,/
9:05.928,196534,/
9:06.703,196813,/
9:07.531,197111,/
9:08.353,197407,/
9:09.178,197704,/
9:10.033,198012,/
9:10.883,198318,/
9:11.728,198622,/
9:12.522,198908,/
9:13.308,199191,/
9:14.150,199494,/
9:14.986,199795,/
9:15.822,200096,/
9:16.667,200400,/
9:17.500,200700,/
9:18.311,200992,/
9:19.103,201277,/
9:19.903,201565,/
9:20.758,201873,/
9:21.611,202180,/
9:22.450,202482,/
9:23.286,202783,/
9:24.108,203079,/
9:24.914,203369,/
9:25.711,203656,/
9:26.533,203952,/
9:27.403,204265,/
9:28.250,204570,/
9:29.078,204868,/
9:29.886,205159,/
9:30.700,205452,/
9:31.511,205744,/
9:32.319,206035,/
9:33.172,206342,/
9:34.050,206658,/
9:34.947,206981,/
9:35.703,207253,/
9:36.503,207541,/
9:37.064,207743,V
9:37.900,208044,/
9:38.719,208339,/
9:39.631,208667,/
9:40.444,208960,/
9:41.278,209260,/
9:42.072,209546,/
9:42.872,209834,/
9:43.686,210127,/
9:44.519,210427,/
9:45.361,210730,/
9:46.219,211039,/
9:47.081,211349,/
9:47.897,211643,/
9:48.681,211925,/
9:49.475,212211,/
9:50.303,212509,/
9:51.144,212812,/
9:51.992,213117,/
9:52.844,213424,/
9:53.692,213729,/
9:54.492,214017,/
9:55.281,214301,/
9:56.086,214591,/
9:56.942,214899,/
9:57.800,215208,/
9:58.636,215509,/
9:59.483,215814,/
10:00.300,216108,/
10:01.086,216391,/
10:01.883,216678,/
10:02.706,216974,/
10:03.572,217286,/
10:04.428,217594,/
10:05.256,217892,/
10:06.086,218191,/
10:06.897,218483,/
10:07.686,218767,/
10:08.508,219063,/
10:09.356,219368,/
10:10.222,219680,/
10:11.069,219985,/
10:11.872,220274,/
10:12.683,220566,/
10:13.489,220856,/
10:14.292,221145,/
10:15.133,221448,/
10:15.989,221756,/
10:16.861,222070,/
10:17.686,222367,/
10:18.475,222651,/
10:19.300,222948,/
10:20.111,223240,/
10:20.931,223535,/
10:21.783,223842,/
10:22.633,224148,/
10:23.475,224451,/
10:24.275,224739,/
10:25.056,225020,/
10:25.892,225321,/
10:26.719,225619,/
10:27.561,225922,/
10:28.419,226231,/
10:29.261,226534,/
10:30.086,226831,/
10:30.875,227115,/
10:31.664,227399,/
10:32.514,227705,/
10:33.358,228009,/
10:34.197,228311,/
10:35.039,228614,/
10:35.858,228909,/
10:36.669,229201,/
10:37.464,229487,/
10:38.267,229776,/
10:39.142,230091,/
10:40.006,230402,/
10:40.828,230698,/
10:41.650,230994,/
10:42.464,231287,/
10:43.275,231579,/
10:44.069,231865,/
10:44.897,232163,/
10:45.781,232481,/
10:46.625,232785,/
10:47.439,233078,/
10:48.239,233366,/
10:49.050,233658,/
10:49.864,233951,/
10:50.683,234246,/
10:51.544,234556,/
10:52.417,234870,/
10:53.247,235169,/
10:54.047,235457,/
10:54.894,235762,/
10:55.650,236034,/
10:56.475,236331,/
10:57.314,236633,/
10:58.172,236942,/
10:59.033,237252,/
10:59.844,237544,/
11:00.639,237830,/
11:01.439,238118,/
11:02.272,238418,/
11:03.125,238725,/
11:03.964,239027,/
11:04.825,239337,/
11:05.664,239639,/
11:06.506,239942,/
11:07.239,240206,/
11:08.044,240496,/
11:08.889,240800,/
11:09.744,241108,/
11:10.586,241411,/
11:11.436,241717,/
11:12.253,242011,/
11:13.042,242295,/
11:13.853,242587,/
11:14.678,242884,/
11:15.547,243197,/
11:16.397,243503,/
11:17.225,243801,/
11:18.053,244099,/
11:18.853,244387,/
11:19.644,244672,/
11:20.467,244968,/
11:21.311,245272,/
11:22.189,245588,/
11:23.036,245893,/
11:23.839,246182,/
11:24.664,246479,/
11:25.472,246770,/
11:26.269,247057,/
11:27.114,247361,/
11:27.964,247667,/
11:28.831,247979,/
11:29.647,248273,/
11:30.431,248555,/
11:31.261,248854,/
11:32.072,249146,/
11:32.892,249441,/
11:33.756,249752,/
11:34.608,250059,/
11:35.456,250364,/
11:36.311,250672,/
11:37.039,250934,/
11:37.875,251235,/
11:38.703,251533,/
11:39.536,251833,/
11:40.386,252139,/
11:41.225,252441,/
11:42.050,252738,/
11:42.839,253022,/
11:43.631,253307,/
11:44.483,253614,/
11:45.333,253920,/
11:46.239,254246,/
11:47.019,254527,/
11:47.842,254823,/
11:48.658,255117,/
11:49.447,255401,/
11:50.253,255691,/
11:51.119,256003,/
11:51.969,256309,/
11:52.794,256606,/
11:53.614,256901,/
11:54.425,257193,/
11:55.239,257486,/
11:56.039,257774,/
11:56.875,258075,/
11:57.758,258393,/
11:58.600,258696,/
11:59.417,258990,/
12:00.219,259279,/
12:01.031,259571,/
12:01.839,259862,/
12:02.653,260155,/
12:03.508,260463,/
12:04.378,260776,/
12:05.214,261077,/
12:06.019,261367,/
12:06.814,261653,/
12:07.636,261949,/
12:08.464,262247,/
12:09.300,262548,/
12:10.161,262858,/
12:11.022,263168,/
12:11.831,263459,/
12:12.619,263743,/
12:13.417,264030,/
12:14.247,264329,/
12:15.081,264629,/
12:15.919,264931,/
12:16.789,265244,/
12:17.628,265546,/
12:18.422,265832,/
12:19.225,266121,/
12:20.031,266411,/
12:20.881,266717,/
12:21.731,267023,/
12:22.564,267323,/
12:23.419,267631,/
12:24.228,267922,/
12:25.014,268205,/
12:25.817,268494,/
12:26.639,268790,/
12:27.511,269104,/
12:28.364,269411,/
12:29.194,269710,/
12:30.033,270012,/
12:30.839,270302,/
12:31.628,270586,/
12:32.447,270881,/
12:33.294,271186,/
12:34.167,271500,/
12:35.006,271802,/
12:35.808,272091,/
12:36.633,272388,/
12:37.436,272677,/
12:38.228,272962,/
12:39.069,273265,/
12:39.931,273575,/
12:40.794,273886,/
12:41.619,274183,/
12:42.411,274468,/
12:43.239,274766,/
12:44.097,275075,/
12:44.858,275349,/
12:45.711,275656,/
12:46.564,275963,/
12:47.411,276268,/
12:48.208,276555,/
12:48.997,276839,/
12:49.831,277139,/
12:50.658,277437,/
12:51.561,277762,/
12:52.353,278047,/
12:53.208,278355,/
12:54.031,278651,/
12:54.819,278935,/
12:55.614,279221,/
12:56.461,279526,/
12:57.306,279830,/
12:58.136,280129,/
12:58.978,280432,/
12:59.808,280731,/
13:00.617,281022,/
13:01.461,281326,/
13:02.228,281602,/
13:03.097,281915,/
13:03.947,282221,/
13:04.781,282521,/
13:05.606,282818,/
13:06.419,283111,/
13:07.217,283398,/
13:08.014,283685,/
13:08.856,283988,/
13:09.722,284300,/
13:10.569,284605,/
13:11.394,284902,/
13:12.197,285191,/
13:13.017,285486,/
13:13.825,285777,/
13:14.642,286071,/
13:15.511,286384,/
13:16.375,286695,/
13:17.203,286993,/
13:18.008,287283,/
13:18.861,287590,/
13:19.622,287864,/
13:20.442,288159,/
13:21.269,288457,/
13:22.142,288771,/
13:22.997,289079,/
13:23.806,289370,/
13:24.608,289659,/
13:25.411,289948,/
13:26.239,290246,/
13:27.081,290549,/
13:27.914,290849,/
13:28.789,291164,/
13:29.617,291462,/
13:30.400,291744,/
13:31.203,292033,/
13:32.008,292323,/
13:32.856,292628,/
13:33.703,292933,/
13:34.542,293235,/
13:35.408,293547,/
13:36.219,293839,/
13:37.008,294123,/
13:37.814,294413,/
13:38.639,294710,/
13:39.506,295022,/
13:40.350,295326,/
13:41.175,295623,/
13:42.019,295927,/
13:42.819,296215,/
13:43.597,296495,/
13:44.467,296808,/
13:45.267,297096,/
13:46.139,297410,/
13:46.975,297711,/
13:47.794,298006,/
13:48.625,298305,/
13:49.422,298592,/
13:50.211,298876,/
13:51.047,299177,/
13:51.908,299487,/
13:52.761,299794,/
13:53.581,300089,/
13:54.383,300378,/
13:55.203,300673,/
13:56.006,300962,/
13:56.822,301256,/
13:57.681,301565,/
13:58.550,301878,/
13:59.389,302180,/
14:00.194,302470,/
14:00.997,302759,/
14:01.814,303053,/
14:02.633,303348,/
14:03.469,303649,/
14:04.319,303955,/
14:05.181,304265,/
14:05.997,304559,/
14:06.783,304842,/
14:07.603,305137,/
14:08.433,305436,/
14:09.269,305737,/
14:10.122,306044,/
14:10.964,306347,/
14:11.803,306649,/
14:12.600,306936,/
14:13.383,307218,/
14:14.214,307517,/
14:15.058,307821,/
14:15.897,308123,/
14:16.750,308430,/
14:17.575,308727,/
14:18.397,309023,/
14:19.200,309312,/
14:19.992,309597,/
14:20.853,309907,/
14:21.717,310218,/
14:22.553,310519,/
14:23.389,310820,/
14:24.192,311109,/
14:25.006,311402,/
14:25.806,311690,/
14:26.611,311980,/
14:27.492,312297,/
14:28.353,312607,/
14:29.178,312904,/
14:29.994,313198,/
14:30.800,313488,/
14:31.622,313784,/
14:32.431,314075,/
14:33.264,314375,/
14:34.150,314694,/
14:34.994,314998,/
14:35.800,315288,/
14:36.597,315575,/
14:37.394,315862,/
14:38.217,316158,/
14:39.047,316457,/
14:39.892,316761,/
14:40.775,317079,/
14:41.603,317377,/
14:42.392,317661,/
14:43.194,317950,/
14:44.003,318241,/
14:44.850,318546,/
14:45.697,318851,/
14:46.542,319155,/
14:47.403,319465,/
14:48.206,319754,/
14:48.983,320034,/
14:49.783,320322,/
14:50.617,320622,/
14:51.483,320934,/
14:52.333,321240,/
14:53.178,321544,/
14:54.011,321844,/
14:54.808,322131,/
14:55.586,322411,/
14:56.403,322705,/
14:57.264,323015,/
14:58.117,323322,/
14:58.953,323623,/
14:59.783,323922,/
15:00.594,324214,/
15:01.381,324497,/
15:02.186,324787,/
15:03.028,325090,/
15:03.908,325407,/
15:04.758,325713,/
15:05.572,326006,/
15:06.392,326301,/
15:07.197,326591,/
15:07.994,326878,/
15:08.825,327177,/
15:09.672,327482,/
15:10.544,327796,/
15:11.375,328095,/
15:12.161,328378,/
15:12.981,328673,/
15:13.803,328969,/
15:14.617,329262,/
15:15.472,329570,/
15:16.325,329877,/
15:17.186,330187,/
15:17.992,330477,/
15:18.769,330757,/
15:19.597,331055,/
15:20.422,331352,/
15:21.253,331651,/
15:22.103,331957,/
15:22.950,332262,/
15:23.786,332563,/
15:24.578,332848,/
15:25.369,333133,/
15:26.211,333436,/
15:27.056,333740,/
15:27.897,334043,/
15:28.742,334347,/
15:29.564,334643,/
15:30.383,334938,/
15:31.233,335244,/
15:31.972,335510,/
15:32.831,335819,/
15:33.683,336126,/
15:34.522,336428,/
15:35.356,336728,/
15:36.167,337020,/
15:36.992,337317,/
15:37.789,337604,/
15:38.608,337899,/
15:39.489,338216,/
15:40.336,338521,/
15:41.153,338815,/
15:41.964,339107,/
15:42.767,339396,/
15:43.572,339686,/
15:44.386,339979,/
15:45.231,340283,/
15:46.106,340598,/
15:46.950,340902,/
15:47.764,341195,/
15:48.619,341503,/
15:49.381,341777,/
15:50.194,342070,/
15:51.028,342370,/
15:51.889,342680,/
15:52.750,342990,/
15:53.572,343286,/
15:54.364,343571,/
15:55.156,343856,/
15:55.981,344153,/
15:56.817,344454,/
15:57.664,344759,/
15:58.528,345070,/
15:59.383,345378,/
16:00.181,345665,/
16:00.975,345951,/
16:01.772,346238,/
16:02.617,346542,/
16:03.464,346847,/
16:04.300,347148,/
16:05.164,347459,/
16:05.983,347754,/
16:06.822,348056,/
16:07.569,348325,/
16:08.386,348619,/
16:09.253,348931,/
16:10.106,349238,/
16:10.936,349537,/
16:11.786,349843,/
16:12.589,350132,/
16:13.372,350414,/
16:14.183,350706,/
16:15.025,351009,/
16:15.892,351321,/
16:16.736,351625,/
16:17.547,351917,/
16:18.372,352214,/
16:19.181,352505,/
16:19.978,352792,/
16:20.811,353092,/
16:21.672,353402,/
16:22.547,353717,/
16:23.456,354044,/
16:24.161,354298,/
16:24.989,354596,/
16:25.792,354885,/
16:26.600,355176,/
16:27.444,355480,/
16:28.297,355787,/
16:29.236,356125,/
16:29.956,356384,/
16:30.750,356670,/
16:31.578,356968,/
16:32.397,357263,/
16:33.228,357562,/
16:34.083,357870,/
16:34.931,358175,/
16:35.764,358475,/
16:36.556,358760,/
16:37.350,359046,/
16:38.181,359345,/
16:39.017,359646,/
16:39.856,359948,/
16:40.700,360252,/
16:41.544,360556,/
16:42.358,360849,/
16:43.153,361135,/
16:43.961,361426,/
16:44.817,361734,/
16:45.669,362041,/
16:46.500,362340,/
16:47.328,362638,/
16:48.153,362935,/
16:48.950,363222,/
16:49.742,363507,/
16:50.575,363807,/
16:51.442,364119,/
16:52.289,364424,/
16:53.122,364724,/
16:53.936,365017,/
16:54.756,365312,/
16:55.556,365600,/
16:56.358,365889,/
16:57.222,366200,/
16:58.081,366509,/
16:58.914,366809,/
16:59.733,367104,/
17:00.528,367390,/
17:01.342,367683,/
17:02.153,367975,/
17:02.978,368272,/
17:03.856,368588,/
17:04.717,368898,/
17:05.533,369192,/
17:06.342,369483,/
17:07.139,369770,/
17:07.964,370067,/
17:08.792,370365,/
17:09.631,370667,/
17:10.506,370982,/
17:11.347,371285,/
17:12.131,371567,/
17:13.017,371886,/
17:13.736,372145,/
17:14.575,372447,/
17:15.422,372752,/
17:16.264,373055,/
17:17.142,373371,/
17:17.956,373664,/
17:18.739,373946,/
17:19.539,374234,/
17:20.358,374529,/
17:21.219,374839,/
17:22.061,375142,/
17:22.894,375442,/
17:23.744,375748,/
17:24.547,376037,/
17:25.333,376320,/
17:26.147,376613,/
17:26.992,376917,/
17:27.869,377233,/
17:28.711,377536,/
17:29.525,377829,/
17:30.358,378129,/
17:31.158,378417,/
17:31.942,378699,/
17:32.772,378998,/
17:33.628,379306,/
17:34.494,379618,/
17:35.317,379914,/
17:36.119,380203,/
17:36.950,380502,/
17:37.758,380793,/
17:38.564,381083,/
17:39.475,381411,/
17:40.281,381701,/
17:41.128,382006,/
17:41.931,382295,/
17:42.731,382583,/
17:43.550,382878,/
17:44.361,383170,/
17:45.192,383469,/
17:46.039,383774,/
17:46.900,384084,/
17:47.731,384383,/
17:48.528,384670,/
17:49.333,384960,/
17:50.164,385259,/
17:50.994,385558,/
17:51.842,385863,/
17:52.681,386165,/
17:53.592,386493,/
17:54.336,386761,/
17:55.119,387043,/
17:55.939,387338,/
17:56.778,387640,/
17:57.619,387943,/
17:58.469,388249,/
17:59.306,388550,/
18:00.133,388848,/
18:00.933,389136,/
18:01.719,389419,/
18:02.567,389724,/
18:03.422,390032,/
18:04.258,390333,/
18:05.103,390637,/
18:05.917,390930,/
18:06.728,391222,/
18:07.522,391508,/
18:08.322,391796,/
18:09.192,392109,/
18:10.056,392420,/
18:10.894,392722,/
18:11.722,393020,/
18:12.525,393309,/
18:13.339,393602,/
18:14.142,393891,/
18:14.964,394187,/
18:15.847,394505,/
18:16.700,394812,/
18:17.511,395104,/
18:18.308,395391,/
18:19.106,395678,/
18:19.931,395975,/
18:20.750,396270,/
18:21.597,396575,/
18:22.486,396895,/
18:23.325,397197,/
18:24.114,397481,/
18:24.908,397767,/
18:25.714,398057,/
18:26.547,398357,/
18:27.386,398659,/
18:28.233,398964,/
18:29.103,399277,/
18:29.914,399569,/
18:30.697,399851,/
18:31.492,400137,/
18:32.319,400435,/
18:33.178,400744,/
18:34.036,401053,/
18:34.881,401357,/
18:35.722,401660,/
18:36.519,401947,/
18:37.300,402228,/
18:38.106,402518,/
18:38.958,402825,/
18:39.819,403135,/
18:40.656,403436,/
18:41.492,403737,/
18:42.311,404032,/
18:43.106,404318,/
18:43.903,404605,/
18:44.733,404904,/
18:45.603,405217,/
18:46.458,405525,/
18:47.283,405822,/
18:48.106,406118,/
18:48.911,406408,/
18:49.700,406692,/
18:50.522,406988,/
18:51.367,407292,/
18:52.236,407605,/
18:53.139,407930,/
18:53.886,408199,/
18:54.706,408494,/
18:55.514,408785,/
18:56.322,409076,/
18:57.172,409382,/
18:58.025,409689,/
18:58.886,409999,/
18:59.708,410295,/
19:00.492,410577,/
19:01.308,410871,/
19:02.128,411166,/
19:02.950,411462,/
19:03.806,411770,/
19:04.658,412077,/
19:05.508,412383,/
19:06.308,412671,/
19:07.094,412954,/
19:07.931,413255,/
19:08.764,413555,/
19:09.603,413857,/
19:10.456,414164,/
19:11.289,414464,/
19:12.192,414789,/
19:12.894,415042,/
19:13.686,415327,/
19:14.539,415634,/
19:15.389,415940,/
19:16.233,416244,/
19:17.136,416569,/
19:17.900,416844,/
19:18.714,417137,/
19:19.508,417423,/
19:20.314,417713,/
19:21.189,418028,/
19:22.039,418334,/
19:22.867,418632,/
19:23.683,418926,/
19:24.489,419216,/
19:25.303,419509,/
19:26.106,419798,/
19:26.939,420098,/
19:27.825,420417,/
19:28.669,420721,/
19:29.481,421013,/
19:30.283,421302,/
19:31.094,421594,/
19:31.903,421885,/
19:32.725,422181,/
19:33.583,422490,/
19:34.450,422802,/
19:35.275,423099,/
19:36.075,423387,/
19:36.869,423673,/
19:37.692,423969,/
19:38.519,424267,/
19:39.358,424569,/
19:40.228,424882,/
19:41.083,425190,/
19:41.889,425480,/
19:42.683,425766,/
19:43.478,426052,/
19:44.308,426351,/
19:45.156,426656,/
19:45.989,426956,/
19:46.853,427267,/
19:47.689,427568,/
19:48.478,427852,/
19:49.278,428140,/
19:50.092,428433,/
19:50.947,428741,/
19:51.800,429048,/
19:52.628,429346,/
19:53.486,429655,/
19:54.297,429947,/
19:55.081,430229,/
19:55.883,430518,/
19:56.714,430817,/
19:57.578,431128,/
19:58.422,431432,/
19:59.244,431728,/
20:00.142,432051,/
20:00.886,432319,/
20:01.681,432605,/
20:02.500,432900,/
20:03.353,433207,/
20:04.225,433521,/
20:05.061,433822,/
20:05.867,434112,/
20:06.744,434428,/
20:07.486,434695,/
20:08.286,434983,/
20:09.128,435286,/
20:09.986,435595,/
20:10.853,435907,/
20:11.672,436202,/
20:12.469,436489,/
20:13.297,436787,/
20:14.103,437077,/
20:14.917,437370,/
20:15.769,437677,/
20:16.622,437984,/
20:17.461,438286,/
20:18.258,438573,/
20:19.056,438860,/
20:19.881,439157,/
20:20.706,439454,/
20:21.544,439756,/
20:22.400,440064,/
20:23.256,440372,/
20:24.069,440665,/
20:24.864,440951,/
20:25.675,441243,/
20:26.508,441543,/
20:27.356,441848,/
20:28.197,442151,/
20:29.033,442452,/
20:29.867,442752,/
20:30.667,443040,/
20:31.542,443355,/
20:32.281,443621,/
20:33.144,443932,/
20:33.994,444238,/
20:34.836,444541,/
20:35.658,444837,/
20:36.481,445133,/
20:37.278,445420,/
20:38.072,445706,/
20:38.931,446015,/
20:39.792,446325,/
20:40.625,446625,/
20:41.453,446923,/
20:42.258,447213,/
20:43.069,447505,/
20:43.875,447795,/
20:44.692,448089,/
20:45.569,448405,/
20:46.433,448716,/
20:47.258,449013,/
20:48.067,449304,/
20:48.864,449591,/
20:49.736,449905,/
20:50.497,450179,/
20:51.331,450479,/
20:52.306,450830,/
20:53.058,451101,/
20:53.861,451390,/
20:54.658,451677,/
20:55.461,451966,/
20:56.300,452268,/
20:57.139,452570,/
20:57.981,452873,/
20:58.858,453189,/
20:59.681,453485,/
21:00.464,453767,/
21:01.256,454052,/
21:02.067,454344,/
21:02.911,454648,/
21:03.758,454953,/
21:04.600,455256,/
21:05.458,455565,/
21:06.314,455873,/
21:07.044,456136,/
21:07.853,456427,/
21:08.692,456729,/
21:09.553,457039,/
21:10.400,457344,/
21:11.239,457646,/
21:12.147,457973,/
21:12.853,458227,/
21:13.644,458512,/
21:14.461,458806,/
21:15.328,459118,/
21:16.186,459427,/
21:17.022,459728,/
21:17.850,460026,/
21:18.664,460319,/
21:19.458,460605,/
21:20.267,460896,/
21:21.108,461199,/
21:21.981,461513,/
21:22.822,461816,/
21:23.631,462107,/
21:24.453,462403,/
21:25.258,462693,/
21:26.056,462980,/
21:26.889,463280,/
21:27.744,463588,/
21:28.611,463900,/
21:29.442,464199,/
21:30.233,464484,/
21:31.058,464781,/
21:31.869,465073,/
21:32.681,465365,/
21:33.533,465672,/
21:34.383,465978,/
21:35.236,466285,/
21:36.042,466575,/
21:36.825,466857,/
21:37.653,467155,/
21:38.478,467452,/
21:39.314,467753,/
21:40.172,468062,/
21:41.019,468367,/
21:41.858,468669,/
21:42.653,468955,/
21:43.439,469238,/
21:44.281,469541,/
21:45.122,469844,/
21:45.953,470143,/
21:46.794,470446,/
21:47.625,470745,/
21:48.436,471037,/
21:49.231,471323,/
21:50.036,471613,/
21:50.897,471923,/
21:51.750,472230,/
21:52.589,472532,/
21:53.419,472831,/
21:54.233,473124,/
21:55.094,473434,/
21:55.836,473701,/
21:56.667,474000,/
21:57.536,474313,/
21:58.383,474618,/
21:59.211,474916,/
22:00.017,475206,/
22:00.828,475498,/
22:01.697,475811,/
22:02.456,476084,/
22:03.311,476392,/
22:04.192,476709,/
22:05.028,477010,/
22:05.831,477299,/
22:06.628,477586,/
22:07.442,477879,/
22:08.253,478171,/
22:09.083,478470,/
22:09.953,478783,/
22:10.814,479093,/
22:11.628,479386,/
22:12.428,479674,/
22:13.231,479963,/
22:14.058,480261,/
22:14.894,480562,/
22:15.736,480865,/
22:16.606,481178,/
22:17.442,481479,/
22:18.233,481764,/
22:19.031,482051,/
22:19.836,482341,/
22:20.678,482644,/
22:21.522,482948,/
22:22.361,483250,/
22:23.228,483562,/
22:24.044,483856,/
22:24.833,484140,/
22:25.639,484430,/
22:26.461,484726,/
22:27.331,485039,/
22:28.175,485343,/
22:29.000,485640,/
22:29.850,485946,/
22:30.647,486233,/
22:31.428,486514,/
22:32.236,486805,/
22:33.083,487110,/
22:33.947,487421,/
22:34.792,487725,/
22:35.611,488020,/
22:36.444,488320,/
22:37.242,488607,/
22:38.031,488891,/
22:38.858,489189,/
22:39.728,489502,/
22:40.581,489809,/
22:41.403,490105,/
22:42.208,490395,/
22:43.025,490689,/
22:43.825,490977,/
22:44.642,491271,/
22:45.489,491576,/
22:46.364,491891,/
22:47.211,492196,/
22:48.011,492484,/
22:48.817,492774,/
22:49.633,493068,/
22:50.444,493360,/
22:51.283,493662,/
22:52.133,493968,/
22:52.994,494278,/
22:53.811,494572,/
22:54.592,494853,/
22:55.411,495148,/
22:56.239,495446,/
22:57.072,495746,/
22:57.992,496077,/
22:58.778,496360,/
22:59.619,496663,/
23:00.414,496949,/
23:01.200,497232,/
23:02.028,497530,/
23:02.867,497832,/
23:03.708,498135,/
23:04.558,498441,/
23:05.389,498740,/
23:06.211,499036,/
23:07.006,499322,/
23:07.800,499608,/
23:08.658,499917,/
23:09.514,500225,/
23:10.358,500529,/
23:11.194,500830,/
23:12.003,501121,/
23:12.819,501415,/
23:13.611,501700,/
23:14.419,501991,/
23:15.294,502306,/
23:16.147,502613,/
23:16.969,502909,/
23:17.789,503204,/
23:18.594,503494,/
23:19.408,503787,/
23:20.217,504078,/
23:21.056,504380,/
23:21.936,504697,/
23:22.775,504999,/
23:23.681,505325,/
23:24.389,505580,/
23:25.194,505870,/
23:26.011,506164,/
23:26.836,506461,/
23:27.689,506768,/
23:28.558,507081,/
23:29.392,507381,/
23:30.189,507668,/
23:30.983,507954,/
23:31.564,508163,V
23:32.392,508461,/
23:33.225,508761,/
23:34.067,509064,/
23:34.939,509378,/
23:35.764,509675,/
23:36.544,509956,/
23:37.339,510242,/
23:38.158,510537,/
23:39.011,510844,/
23:39.856,511148,/
23:40.706,511454,/
23:41.617,511782,/
23:42.367,512052,/
23:43.153,512335,/
23:43.953,512623,/
23:44.797,512927,/
23:45.656,513236,/
23:46.492,513537,/
23:47.333,513840,/
23:48.156,514136,/
23:48.942,514419,/
23:49.739,514706,/
23:50.564,515003,/
23:51.428,515314,/
23:52.289,515624,/
23:53.125,515925,/
23:53.950,516222,/
23:54.761,516514,/
23:55.550,516798,/
23:56.369,517093,/
23:57.211,517396,/
23:58.081,517709,/
23:58.925,518013,/
23:59.728,518302,/
24:00.547,518597,/
24:01.353,518887,/
24:02.156,519176,/
24:02.997,519479,/
24:03.858,519789,/
24:04.722,520100,/
24:05.544,520396,/
24:06.333,520680,/
24:07.158,520977,/
24:07.964,521267,/
24:08.778,521560,/
24:09.633,521868,/
24:10.483,522174,/
24:11.333,522480,/
24:12.133,522768,/
24:12.919,523051,/
24:13.756,523352,/
24:14.583,523650,/
24:15.419,523951,/
24:16.269,524257,/
24:17.119,524563,/
24:17.944,524860,/
24:18.733,525144,/
24:19.528,525430,/
24:20.367,525732,/
24:21.214,526037,/
24:22.042,526335,/
24:22.883,526638,/
24:23.722,526940,/
24:24.528,527230,/
24:25.319,527515,/
24:26.142,527811,/
24:27.000,528120,/
24:27.933,528456,/
24:28.692,528729,/
24:29.511,529024,/
24:30.331,529319,/
24:31.125,529605,/
24:31.919,529891,/
24:32.764,530195,/
24:33.625,530505,/
24:34.467,530808,/
24:35.303,531109,/
24:36.108,531399,/
24:36.925,531693,/
24:37.736,531985,/
24:38.550,532278,/
24:39.419,532591,/
24:40.281,532901,/
24:41.106,533198,/
24:41.922,533492,/
24:42.717,533778,/
24:43.536,534073,/
24:44.350,534366,/
24:45.181,534665,/
24:46.061,534982,/
24:46.917,535290,/
24:47.719,535579,/
24:48.522,535868,/
24:49.328,536158,/
24:50.150,536454,/
24:51.039,536774,/
24:51.825,537057,/
24:52.700,537372,/
24:53.522,537668,/
24:54.311,537952,/
24:55.111,538240,/
24:55.919,538531,/
24:56.767,538836,/
24:57.614,539141,/
24:58.464,539447,/
24:59.328,539758,/
25:00.136,540049,/
25:00.922,540332,/
25:01.722,540620,/
25:02.553,540919,/
25:03.414,541229,/
25:04.256,541532,/
25:05.094,541834,/
25:05.931,542135,/
25:06.778,542440,/
25:07.511,542704,/
25:08.328,542998,/
25:09.189,543308,/
25:10.050,543618,/
25:10.889,543920,/
25:11.722,544220,/
25:12.622,544544,/
25:13.331,544799,/
25:14.128,545086,/
25:14.964,545387,/
25:15.836,545701,/
25:16.681,546005,/
25:17.497,546299,/
25:18.317,546594,/
25:19.125,546885,/
25:19.922,547172,/
25:20.756,547472,/
25:21.614,547781,/
25:22.486,548095,/
25:23.317,548394,/
25:24.108,548679,/
25:24.928,548974,/
25:25.733,549264,/
25:26.550,549558,/
25:27.397,549863,/
25:28.247,550169,/
25:29.111,550480,/
25:29.917,550770,/
25:30.700,551052,/
25:31.533,551352,/
25:32.358,551649,/
25:33.189,551948,/
25:34.042,552255,/
25:34.886,552559,/
25:35.719,552859,/
25:36.511,553144,/
25:37.300,553428,/
25:38.136,553729,/
25:38.972,554030,/
25:39.806,554330,/
25:40.653,554635,/
25:41.492,554937,/
25:42.308,555231,/
25:43.103,555517,/
25:43.911,555808,/
25:44.761,556114,/
25:45.614,556421,/
25:46.453,556723,/
25:47.281,557021,/
25:48.106,557318,/
25:48.906,557606,/
25:49.697,557891,/
25:50.528,558190,/
25:51.392,558501,/
25:52.242,558807,/
25:53.078,559108,/
25:53.892,559401,/
25:54.708,559695,/
25:55.514,559985,/
25:56.308,560271,/
25:57.175,560583,/
25:58.039,560894,/
25:58.869,561193,/
25:59.689,561488,/
26:00.489,561776,/
26:01.300,562068,/
26:02.106,562358,/
26:02.928,562654,/
26:03.811,562972,/
26:04.672,563282,/
26:05.489,563576,/
26:06.294,563866,/
26:06.831,564059,V
26:07.642,564351,/
26:08.464,564647,/
26:09.303,564949,/
26:10.169,565261,/
26:11.019,565567,/
26:11.825,565857,/
26:12.622,566144,/
26:13.419,566431,/
26:14.258,566733,/
26:15.103,567037,f
26:15.947,567341,f
26:16.819,567655,/
26:17.650,567954,/
26:18.433,568236,/
26:19.233,568524,/
26:20.039,568814,/
26:20.889,569120,/
26:21.739,569426,/
26:22.572,569726,/
26:23.433,570036,/
26:24.233,570324,/
26:25.019,570607,f
26:25.831,570899,/
26:26.664,571199,/
26:27.536,571513,/
26:28.381,571817,/
26:29.211,572116,/
26:30.044,572416,/
26:30.844,572704,/
26:31.631,572987,/
26:32.447,573281,/
26:33.300,573588,/
26:34.169,573901,/
26:35.003,574201,f
26:35.814,574493,/
26:36.639,574790,/
26:37.447,575081,/
26:38.244,575368,/
26:39.086,575671,/
26:39.956,575984,/
26:40.808,576291,/
26:41.619,576583,/
26:42.431,576875,/
26:43.247,577169,/
26:44.047,577457,/
26:44.869,577753,/
26:45.722,578060,/
26:46.586,578371,/
26:47.422,578672,/
26:48.217,578958,/
26:49.031,579251,/
26:49.853,579547,/
26:50.667,579840,/
26:51.517,580146,/
26:52.369,580453,/
26:53.219,580759,/
26:54.031,581051,/
26:54.817,581334,/
26:55.633,581628,/
26:56.464,581927,/
26:57.300,582228,/
26:58.153,582535,/
26:59.003,582841,/
26:59.844,583144,/
27:00.639,583430,/
27:01.425,583713,/
27:02.267,584016,/
27:03.114,584321,/
27:04.042,584655,/
27:04.794,584926,/
27:05.619,585223,/
27:06.433,585516,/
27:07.222,585800,/
27:08.017,586086,/
27:08.881,586397,/
27:09.736,586705,/
27:10.572,587006,/
27:11.406,587306,/
27:12.219,587599,/
27:13.031,587891,/
27:13.825,588177,/
27:14.650,588474,/
27:15.522,588788,/
27:16.369,589093,/
27:17.194,589390,/
27:18.000,589680,/
27:18.808,589971,/
27:19.711,590296,/
27:20.431,590555,/
27:21.286,590863,/
27:22.164,591179,/
27:23.003,591481,/
27:23.808,591771,/
27:24.606,592058,/
27:25.422,592352,/
27:26.233,592644,/
27:27.061,592942,/
27:27.933,593256,/
27:28.792,593565,/
27:29.603,593857,/
27:30.403,594145,/
27:31.203,594433,/
27:32.028,594730,/
27:32.858,595029,/
27:33.703,595333,/
27:34.583,595650,/
27:35.417,595950,/
27:36.208,596235,/
27:37.008,596523,/
27:37.808,596811,/
27:38.647,597113,/
27:39.497,597419,/
27:40.333,597720,/
27:41.203,598033,/
27:42.017,598326,/
27:42.803,598609,/
27:43.608,598899,/
27:44.433,599196,/
27:45.303,599509,/
27:46.150,599814,f
27:46.983,600114,/
27:47.828,600418,/
27:48.622,600704,/
27:49.400,600984,/
27:50.208,601275,/
27:51.058,601581,/
27:51.919,601891,/
27:52.761,602194,/
27:53.589,602492,/
27:54.414,602789,/
27:55.261,603094,/
27:56.006,603362,/
27:56.839,603662,/
27:57.708,603975,/
27:58.567,604284,/
27:59.386,604579,/
28:00.200,604872,/
28:01.011,605164,/
28:01.808,605451,/
28:02.625,605745,/
28:03.472,606050,/
28:04.344,606364,f
28:05.192,606669,f
28:05.992,606957,/
28:06.806,607250,/
28:07.628,607546,/
28:08.436,607837,/
28:09.278,608140,/
28:10.131,608447,/
28:10.989,608756,/
28:11.806,609050,/
28:12.589,609332,/
28:13.408,609627,/
28:14.233,609924,f
28:15.050,610218,N
28:15.911,610528,f
28:16.753,610831,f
28:17.600,611136,/
28:18.397,611423,/
28:19.181,611705,/
28:20.014,612005,/
28:20.853,612307,/
28:21.692,612609,/
28:22.542,612915,/
28:23.375,613215,/
28:24.194,613510,/
28:24.983,613794,/
28:25.775,614079,/
28:26.631,614387,f
28:27.486,614695,/
28:28.331,614999,/
28:29.169,615301,/
28:29.983,615594,/
28:30.800,615888,/
28:31.592,616173,/
28:32.406,616466,/
28:33.278,616780,/
28:34.131,617087,/
28:34.950,617382,/
28:35.764,617675,/
28:36.575,617967,/
28:37.381,618257,/
28:38.189,618548,/
28:39.039,618854,/
28:39.914,619169,/
28:40.756,619472,/
28:41.572,619766,/
28:42.369,620053,/
28:43.244,620368,/
28:43.992,620637,/
28:44.808,620931,/
28:45.678,621244,/
28:46.539,621554,/
28:47.361,621850,/
28:48.169,622141,/
28:48.967,622428,/
28:49.797,622727,/
28:50.622,623024,/
28:51.453,623323,/
28:52.336,623641,f
28:53.192,623949,f
28:53.992,624237,f
28:54.778,624520,f
28:55.575,624807,/
28:56.411,625108,/
28:57.247,625409,/
28:58.083,625710,/
28:58.964,626027,/
28:59.789,626324,/
29:00.575,626607,/
29:01.375,626895,/
29:02.189,627188,/
29:03.042,627495,/
29:03.892,627801,/
29:04.731,628103,/
29:05.583,628410,f
29:06.383,628698,f
29:07.161,628978,/
29:07.964,629267,/
29:08.800,629568,/
29:09.667,629880,/
29:10.517,630186,/
29:11.356,630488,/
29:12.181,630785,/
29:12.978,631072,/
29:13.772,631358,/
29:14.589,631652,/
29:15.456,631964,/
29:16.319,632275,/
29:17.144,632572,f
29:17.967,632868,f
29:18.781,633161,/
29:19.569,633445,/
29:20.378,633736,/
29:21.222,634040,/
29:22.094,634354,/
29:22.944,634660,/
29:23.756,634952,/
29:24.575,635247,/
29:25.381,635537,/
29:26.178,635824,/
29:27.022,636128,/
29:27.875,636435,/
29:28.739,636746,f
29:29.564,637043,f
29:30.350,637326,/
29:31.169,637621,/
29:31.983,637914,/
29:32.808,638211,/
29:33.667,638520,/
29:34.522,638828,/
29:35.378,639136,/
29:36.178,639424,/
29:36.961,639706,/
29:37.794,640006,/
29:38.622,640304,/
29:39.453,640603,f
29:40.308,640911,/
29:41.150,641214,/
29:41.978,641512,/
29:42.764,641795,/
29:43.558,642081,/
29:44.414,642389,/
29:45.264,642695,/
29:46.100,642996,/
29:46.947,643301,/
29:47.769,643597,/
29:48.578,643888,/
29:49.367,644172,/
29:50.175,644463,f
29:51.042,644775,f
29:51.894,645082,/
29:52.808,645411,/
29:53.550,645678,/
29:54.364,645971,/
29:55.169,646261,/
29:55.975,646551,/
29:56.814,646853,/
29:57.686,647167,/
29:58.533,647472,/
29:59.356,647768,/
30:00.156,648056,/
30:00.975,648351,f
30:01.778,648640,f
30:02.586,648931,/
30:03.456,649244,/
30:04.314,649553,/
30:05.144,649852,/
