Time,Sample,Type
0:00.131,47,+
0:00.264,95,/
0:00.756,272,/
0:01.581,569,/
0:02.456,884,/
0:03.350,1206,/
0:04.219,1519,/
0:05.056,1820,/
0:05.883,2118,/
0:06.706,2414,/
0:07.558,2721,/
0:08.425,3033,/
0:09.297,3347,/
0:10.169,3661,/
0:11.031,3971,/
0:11.853,4267,/
0:12.667,4560,/
0:13.500,4860,/
0:14.361,5170,/
0:15.250,5490,/
0:16.122,5804,/
0:16.969,6109,/
0:17.797,6407,/
0:18.644,6712,/
0:19.481,7013,/
0:20.328,7318,/
0:21.203,7633,/
0:22.072,7946,/
0:22.928,8254,/
0:23.753,8551,/
0:24.569,8845,/
0:25.394,9142,/
0:26.283,9462,/
0:27.169,9781,/
0:28.028,10090,/
0:28.883,10398,/
0:29.706,10694,/
0:30.539,10994,/
0:31.375,11295,/
0:32.233,11604,/
0:33.106,11918,/
0:34.000,12240,/
0:34.850,12546,/
0:35.664,12839,/
0:36.486,13135,/
0:37.308,13431,/
0:38.186,13747,/
0:39.078,14068,/
0:39.953,14383,/
0:40.800,14688,/
0:41.642,14991,/
0:42.467,15288,/
0:43.286,15583,/
0:44.136,15889,/
0:45.014,16205,/
0:45.894,16522,/
0:46.761,16834,/
0:47.578,17128,/
0:48.392,17421,/
0:49.242,17727,/
0:50.108,18039,/
0:50.983,18354,/
0:51.856,18668,/
0:52.708,18975,/
0:53.544,19276,/
0:54.378,19576,/
0:55.200,19872,/
0:56.036,20173,/
0:56.928,20494,/
0:57.814,20813,/
0:58.667,21120,/
0:59.492,21417,/
1:00.319,21715,/
1:01.150,22014,/
1:02.022,22328,/
1:02.897,22643,/
1:03.767,22956,/
1:04.631,23267,/
1:05.475,23571,/
1:06.297,23867,/
1:07.114,24161,/
1:07.961,24466,/
1:08.831,24779,/
1:09.725,25101,/
1:10.586,25411,/
1:11.417,25710,/
1:12.236,26005,/
1:13.094,26314,/
1:13.947,26621,/
1:14.806,26930,/
1:15.681,27245,/
1:16.536,27553,/
1:17.372,27854,/
1:18.200,28152,/
1:19.028,28450,/
1:19.864,28751,/
1:20.764,29075,/
1:21.642,29391,/
1:22.494,29698,/
1:23.333,30000,/
1:24.153,30295,/
1:24.992,30597,/
1:25.853,30907,/
1:26.719,31219,/
1:27.583,31530,/
1:28.467,31848,/
1:29.197,32111,V
1:30.006,32402,/
1:30.822,32696,/
1:31.667,33000,/
1:32.542,33315,/
1:33.436,33637,/
1:34.303,33949,/
1:35.136,34249,/
1:35.964,34547,/
1:36.806,34850,/
1:37.650,35154,/
1:38.506,35462,/
1:39.383,35778,/
1:40.253,36091,/
1:41.106,36398,/
1:41.922,36692,/
1:42.736,36985,/
1:43.581,37289,/
1:44.478,37612,/
1:45.361,37930,/
1:46.222,38240,/
1:47.069,38545,/
1:47.883,38838,/
1:48.714,39137,/
1:49.547,39437,/
1:50.408,39747,/
1:51.289,40064,/
1:52.183,40386,/
1:53.025,40689,/
1:53.839,40982,/
1:54.658,41277,/
1:55.494,41578,/
1:56.378,41896,/
1:57.264,42215,/
1:58.133,42528,/
1:58.975,42831,/
1:59.817,43134,/
2:00.639,43430,/
2:01.461,43726,/
2:02.322,44036,/
2:03.197,44351,/
2:04.078,44668,/
2:04.933,44976,/
2:05.758,45273,/
2:06.575,45567,/
2:07.436,45877,/
2:08.308,46191,/
2:09.172,46502,/
2:10.033,46812,/
2:10.878,47116,/
2:11.711,47416,/
2:12.539,47714,/
2:13.369,48013,/
2:14.222,48320,/
2:15.128,48646,/
2:15.997,48959,/
2:16.833,49260,/
2:17.664,49559,/
2:18.486,49855,/
2:19.328,50158,/
2:20.200,50472,/
2:21.075,50787,/
2:21.939,51098,/
2:22.811,51412,/
2:23.633,51708,/
2:24.447,52001,/
2:25.272,52298,/
2:26.125,52605,/
2:27.017,52926,/
2:27.911,53248,/
2:28.761,53554,/
2:29.575,53847,/
2:30.417,54150,/
2:31.253,54451,/
2:32.108,54759,/
2:32.975,55071,/
2:33.850,55386,/
2:34.708,55695,/
2:35.550,55998,/
2:36.364,56291,/
2:37.178,56584,/
2:38.047,56897,/
2:38.942,57219,/
2:39.819,57535,/
2:40.667,57840,/
2:41.503,58141,/
2:42.325,58437,/
2:43.164,58739,/
2:44.014,59045,/
2:44.875,59355,/
2:45.761,59674,/
2:46.633,59988,/
2:47.458,60285,/
2:48.269,60577,/
2:49.100,60876,/
2:49.950,61182,/
2:50.842,61503,/
2:51.719,61819,/
2:52.581,62129,/
2:53.411,62428,/
2:54.253,62731,/
2:55.083,63030,/
2:55.917,63330,/
2:56.789,63644,/
2:57.661,63958,/
2:58.531,64271,/
2:59.369,64573,/
3:00.189,64868,/
3:01.008,65163,/
3:01.883,65478,/
3:02.767,65796,/
3:03.631,66107,/
3:04.492,66417,/
3:05.322,66716,/
3:06.147,67013,/
3:06.986,67315,/
3:07.833,67620,/
3:08.689,67928,/
3:09.583,68250,/
3:10.450,68562,/
3:11.281,68861,/
3:12.094,69154,/
3:12.928,69454,/
3:13.786,69763,/
3:14.678,70084,/
3:15.547,70397,/
3:16.403,70705,/
3:17.244,71008,/
3:18.075,71307,/
3:18.903,71605,/
3:19.736,71905,/
3:20.614,72221,/
3:21.489,72536,/
3:22.367,72852,/
3:23.203,73153,/
3:24.019,73447,/
3:24.850,73746,/
3:25.719,74059,/
3:26.594,74374,/
3:27.458,74685,/
3:28.331,74999,/
3:29.161,75298,/
3:29.992,75597,/
3:30.811,75892,/
3:31.644,76192,/
3:32.517,76506,/
3:33.425,76833,/
3:34.292,77145,/
3:35.125,77445,/
3:35.947,77741,/
3:36.764,78035,/
3:37.619,78343,/
3:38.486,78655,/
3:39.353,78967,/
3:40.225,79281,/
3:41.089,79592,/
3:41.906,79886,/
3:42.714,80177,/
3:43.553,80479,/
3:44.417,80790,/
3:45.311,81112,/
3:46.189,81428,/
3:47.036,81733,/
3:47.856,82028,/
3:48.697,82331,/
3:49.536,82633,/
3:50.389,82940,/
3:51.267,83256,/
3:52.128,83566,/
3:52.983,83874,/
3:53.817,84174,/
3:54.636,84469,/
3:55.461,84766,/
3:56.356,85088,/
3:57.242,85407,/
3:58.097,85715,/
3:58.944,86020,/
3:59.761,86314,/
4:00.592,86613,/
4:01.436,86917,/
4:02.297,87227,/
4:03.161,87538,/
4:04.056,87860,/
4:04.897,88163,/
4:05.711,88456,/
4:06.533,88752,/
4:07.367,89052,/
4:08.244,89368,/
4:09.139,89690,/
4:10.011,90004,/
4:10.847,90305,/
4:11.683,90606,/
4:12.508,90903,/
4:13.336,91201,/
4:14.189,91508,/
4:15.067,91824,/
4:15.950,92142,/
4:16.814,92453,/
4:17.639,92750,/
4:18.447,93041,/
4:19.297,93347,/
4:19.975,93591,V
4:20.919,93931,/
4:21.778,94240,/
4:22.639,94550,/
4:23.467,94848,/
4:24.297,95147,/
4:25.117,95442,/
4:25.956,95744,/
4:26.839,96062,/
4:27.739,96386,/
4:28.600,96696,/
4:29.419,96991,/
4:30.244,97288,/
4:31.072,97586,/
4:31.933,97896,/
4:32.808,98211,/
4:33.681,98525,/
4:34.536,98833,/
4:35.389,99140,/
4:36.208,99435,/
4:37.022,99728,/
4:37.867,100032,/
4:38.739,100346,/
4:39.633,100668,/
4:40.500,100980,/
4:41.339,101282,/
4:42.153,101575,/
4:43.006,101882,/
4:43.853,102187,/
4:44.717,102498,/
4:45.586,102811,/
4:46.450,103122,/
4:47.289,103424,/
4:48.128,103726,/
4:48.950,104022,/
4:49.781,104321,/
4:50.675,104643,/
4:51.561,104962,/
4:52.425,105273,/
4:53.250,105570,/
4:54.075,105867,/
4:54.906,106166,/
4:55.767,106476,/
4:56.633,106788,/
4:57.497,107099,/
4:58.372,107414,/
4:59.217,107718,/
5:00.036,108013,/
5:00.853,108307,/
5:01.706,108614,/
5:02.583,108930,/
5:03.475,109251,/
5:04.342,109563,/
5:05.172,109862,/
5:05.997,110159,/
5:06.836,110461,/
5:07.683,110766,/
5:08.542,111075,/
5:09.422,111392,/
5:10.286,111703,/
5:11.133,112008,/
5:11.958,112305,/
5:12.778,112600,/
5:13.617,112902,/
5:14.522,113228,/
5:15.406,113546,/
5:16.258,113853,/
5:17.100,114156,/
5:17.914,114449,/
5:18.750,114750,/
5:19.594,115054,/
5:20.458,115365,/
5:21.331,115679,/
5:22.228,116002,/
5:23.067,116304,/
5:23.878,116596,/
5:24.703,116893,/
5:25.539,117194,/
5:26.422,117512,/
5:27.306,117830,/
5:28.172,118142,/
5:29.011,118444,/
5:29.856,118748,/
5:30.675,119043,/
5:31.500,119340,/
5:32.364,119651,/
5:33.239,119966,/
5:34.117,120282,/
5:34.975,120591,/
5:35.803,120889,/
5:36.617,121182,/
5:37.472,121490,/
5:38.344,121804,/
5:39.211,122116,/
5:40.081,122429,/
5:40.925,122733,/
5:41.753,123031,/
5:42.589,123332,/
5:43.419,123631,/
5:44.269,123937,/
5:45.169,124261,/
5:46.044,124576,/
5:46.886,124879,/
5:47.708,125175,/
5:48.528,125470,/
5:49.372,125774,/
5:50.250,126090,/
5:51.125,126405,/
5:51.981,126713,/
5:52.844,127024,/
5:53.672,127322,/
5:54.489,127616,/
5:55.311,127912,/
5:56.172,128222,/
5:57.064,128543,/
5:57.953,128863,/
5:58.803,129169,/
5:59.619,129463,/
6:00.453,129763,/
6:01.292,130065,/
6:02.150,130374,/
6:03.022,130688,/
6:03.894,131002,/
6:04.750,131310,/
6:05.592,131613,/
6:06.408,131907,/
6:07.222,132200,/
6:08.089,132512,/
6:08.989,132836,/
6:09.869,133153,/
6:10.711,133456,/
6:11.544,133756,/
6:12.367,134052,/
6:13.211,134356,/
6:14.056,134660,/
6:14.919,134971,/
6:15.808,135291,/
6:16.681,135605,/
6:17.508,135903,/
6:18.317,136194,/
6:19.147,136493,/
6:20.000,136800,/
6:20.897,137123,/
6:21.772,137438,/
6:22.622,137744,/
6:23.447,138041,/
6:24.292,138345,/
6:25.122,138644,/
6:25.958,138945,/
6:26.833,139260,/
6:27.703,139573,/
6:28.567,139884,/
6:29.403,140185,/
6:30.228,140482,/
6:31.050,140778,/
6:31.931,141095,/
6:32.811,141412,/
6:33.672,141722,/
6:34.531,142031,/
6:35.358,142329,/
6:36.186,142627,/
6:37.031,142931,/
6:37.878,143236,/
6:38.736,143545,/
6:39.633,143868,/
6:40.497,144179,/
6:41.328,144478,/
6:42.139,144770,/
6:42.972,145070,/
6:43.831,145379,/
6:44.719,145699,/
6:45.592,146013,/
6:46.439,146318,/
6:47.283,146622,/
6:48.111,146920,/
6:48.936,147217,/
6:49.769,147517,/
6:50.650,147834,/
6:51.533,148152,/
6:52.408,148467,/
6:53.242,148767,/
6:54.058,149061,/
6:54.892,149361,/
6:55.756,149672,/
6:56.633,149988,/
6:57.497,150299,/
6:58.367,150612,/
6:59.197,150911,/
7:00.028,151210,/
7:00.853,151507,/
7:01.689,151808,/
7:02.564,152123,/
7:03.472,152450,/
7:04.344,152764,/
7:05.169,153061,/
7:05.994,153358,/
7:06.814,153653,/
7:07.672,153962,/
7:08.539,154274,/
7:09.411,154588,/
7:10.275,154899,/
7:11.139,155210,/
7:11.958,155505,/
7:12.769,155797,/
7:13.611,156100,/
7:14.478,156412,/
7:15.372,156734,/
7:16.244,157048,/
7:17.083,157350,/
7:17.903,157645,/
7:18.747,157949,/
7:19.586,158251,/
7:20.442,158559,/
7:21.317,158874,/
7:22.183,159186,/
7:23.033,159492,/
7:23.861,159790,/
7:24.686,160087,/
7:25.517,160386,/
7:26.414,160709,/
7:27.294,161026,/
7:28.153,161335,/
7:28.997,161639,/
7:29.811,161932,/
7:30.644,162232,/
7:31.497,162539,/
7:32.356,162848,/
7:33.222,163160,/
7:34.117,163482,/
7:34.961,163786,/
7:35.772,164078,/
7:36.592,164373,/
7:37.428,164674,/
7:38.306,164990,/
7:39.197,165311,/
7:40.064,165623,/
7:40.897,165923,/
7:41.742,166227,/
7:42.561,166522,/
7:43.383,166818,/
7:44.244,167128,/
7:45.125,167445,/
7:46.003,167761,/
7:46.864,168071,/
7:47.689,168368,/
7:48.503,168661,/
7:49.356,168968,/
7:50.225,169281,/
7:51.097,169595,/
7:51.964,169907,/
7:52.811,170212,/
7:53.644,170512,/
7:54.481,170813,/
7:55.306,171110,/
7:56.150,171414,/
7:57.047,171737,/
7:57.931,172055,/
7:58.781,172361,/
7:59.600,172656,/
8:00.425,172953,/
8:01.261,173254,/
8:02.139,173570,/
8:03.006,173882,/
8:03.867,174192,/
8:04.736,174505,/
8:05.569,174805,/
8:06.389,175100,/
8:07.206,175394,/
8:08.067,175704,/
8:08.953,176023,/
8:09.839,176342,/
8:10.689,176648,/
8:11.508,176943,/
8:12.336,177241,/
8:13.183,177546,/
8:14.039,177854,/
8:14.906,178166,/
8:15.786,178483,/
8:16.633,178788,/
8:17.472,179090,/
8:18.292,179385,/
8:19.119,179683,/
8:19.972,179990,/
8:20.878,180316,/
8:21.758,180633,/
8:22.603,180937,/
8:23.433,181236,/
8:24.247,181529,/
8:25.092,181833,/
8:25.819,182095,V
8:26.744,182428,/
8:27.617,182742,/
8:28.494,183058,/
8:29.325,183357,/
8:30.133,183648,/
8:30.956,183944,/
8:31.806,184250,/
8:32.694,184570,/
8:33.583,184890,/
8:34.447,185201,/
8:35.269,185497,/
8:36.106,185798,/
8:36.933,186096,/
8:37.775,186399,/
8:38.639,186710,/
8:39.522,187028,/
8:40.392,187341,/
8:41.242,187647,/
8:42.058,187941,/
8:42.872,188234,/
8:43.736,188545,/
8:44.625,188865,/
8:45.503,189181,/
8:46.358,189489,/
8:47.197,189791,/
8:48.017,190086,/
8:48.856,190388,/
8:49.694,190690,/
8:50.553,190999,/
8:51.439,191318,/
8:52.322,191636,/
8:53.161,191938,/
8:53.972,192230,/
8:54.806,192530,/
8:55.653,192835,/
8:56.539,193154,/
8:57.408,193467,/
8:58.267,193776,/
8:59.114,194081,/
8:59.953,194383,/
9:00.778,194680,/
9:01.606,194978,/
9:02.478,195292,/
9:03.353,195607,/
9:04.228,195922,/
9:05.067,196224,/
9:05.889,196520,/
9:06.717,196818,/
9:07.583,197130,/
9:08.453,197443,/
9:09.317,197754,/
9:10.189,198068,/
9:11.022,198368,/
9:11.850,198666,/
9:12.675,198963,/
9:13.511,199264,/
9:14.375,199575,/
9:15.283,199902,/
9:16.153,200215,/
9:16.992,200517,/
9:17.814,200813,/
9:18.631,201107,/
9:19.483,201414,/
9:20.350,201726,/
9:21.222,202040,/
9:22.092,202353,/
9:22.956,202664,/
9:23.781,202961,/
9:24.586,203251,/
9:25.417,203550,/
9:26.283,203862,/
9:27.178,204184,/
9:28.050,204498,/
9:28.900,204804,/
9:29.719,205099,/
9:30.564,205403,/
9:31.397,205703,/
9:32.247,206009,/
9:33.122,206324,/
9:33.989,206636,/
9:34.847,206945,/
9:35.675,207243,/
9:36.494,207538,/
9:37.319,207835,/
9:38.214,208157,/
9:39.100,208476,/
9:39.958,208785,/
9:40.811,209092,/
9:41.628,209386,/
9:42.461,209686,/
9:43.300,209988,/
9:44.156,210296,/
9:45.025,210609,/
9:45.925,210933,/
9:46.775,211239,/
9:47.594,211534,/
9:48.414,211829,/
9:49.242,212127,/
9:50.117,212442,/
9:51.011,212764,/
9:51.878,213076,/
9:52.497,213299,V
9:53.408,213627,/
9:54.236,213925,/
9:55.061,214222,/
9:55.900,214524,/
9:56.778,214840,/
9:57.661,215158,/
9:58.531,215471,/
9:59.356,215768,/
10:00.169,216061,/
10:01.011,216364,/
10:01.878,216676,/
10:02.750,216990,/
10:03.617,217302,/
10:04.483,217614,/
10:05.311,217912,/
10:06.139,218210,/
10:06.964,218507,/
10:07.803,218809,/
10:08.683,219126,/
10:09.583,219450,/
10:10.447,219761,/
10:11.272,220058,/
10:12.094,220354,/
10:12.917,220650,/
10:13.781,220961,/
10:14.658,221277,/
10:15.308,221511,V
10:16.228,221842,/
10:17.086,222151,/
10:17.903,222445,/
10:18.717,222738,/
10:19.547,223037,/
10:20.417,223350,/
10:21.308,223671,/
10:22.192,223989,/
10:23.036,224293,/
10:23.847,224585,/
10:24.686,224887,/
10:25.531,225191,/
10:26.392,225501,/
10:27.264,225815,/
10:28.133,226128,/
10:28.983,226434,/
10:29.817,226734,/
10:30.631,227027,/
10:31.458,227325,/
10:32.342,227643,/
10:33.236,227965,/
10:34.111,228280,/
10:34.944,228580,/
10:35.775,228879,/
10:36.600,229176,/
10:37.450,229482,/
10:38.311,229792,/
10:39.178,230104,/
10:40.053,230419,/
10:40.917,230730,/
10:41.744,231028,/
10:42.556,231320,/
10:43.392,231621,/
10:44.264,231935,/
10:45.161,232258,/
10:46.028,232570,/
10:46.867,232872,/
10:47.700,233172,/
10:48.539,233474,/
10:49.375,233775,/
10:50.222,234080,/
10:51.103,234397,/
10:51.969,234709,/
10:52.828,235018,/
10:53.650,235314,/
10:54.467,235608,/
10:55.303,235909,/
10:56.194,236230,/
10:57.078,236548,/
10:57.939,236858,/
10:58.789,237164,/
10:59.608,237459,/
11:00.436,237757,/
11:01.269,238057,/
11:02.125,238365,/
11:03.003,238681,/
11:03.903,239005,/
11:04.753,239311,/
11:05.572,239606,/
11:06.394,239902,/
11:07.222,240200,/
11:08.097,240515,/
11:08.983,240834,/
11:09.850,241146,/
11:10.697,241451,/
11:11.544,241756,/
11:12.367,242052,/
11:13.181,242345,/
11:14.033,242652,/
11:14.908,242967,/
11:15.797,243287,/
11:16.656,243596,/
11:17.486,243895,/
11:18.303,244189,/
11:19.156,244496,/
11:20.014,244805,/
11:20.875,245115,/
11:21.747,245429,/
11:22.600,245736,/
11:23.439,246038,/
11:24.267,246336,/
11:25.092,246633,/
11:25.936,246937,/
11:26.839,247262,/
11:27.719,247579,/
11:28.569,247885,/
11:29.400,248184,/
11:30.217,248478,/
11:31.058,248781,/
11:31.917,249090,/
11:32.792,249405,/
11:33.656,249716,/
11:34.536,250033,/
11:35.367,250332,/
11:36.181,250625,/
11:37.000,250920,/
11:37.847,251225,/
11:38.739,251546,/
11:39.633,251868,/
11:40.489,252176,/
11:41.311,252472,/
11:42.150,252774,/
11:42.983,253074,/
11:43.825,253377,/
11:44.692,253689,/
11:45.567,254004,/
11:46.436,254317,/
11:47.278,254620,/
11:48.094,254914,/
11:48.908,255207,/
11:49.772,255518,/
11:50.661,255838,/
11:51.536,256153,/
11:52.394,256462,/
11:53.233,256764,/
11:54.053,257059,/
11:54.892,257361,/
11:55.736,257665,/
11:56.594,257974,/
11:57.481,258293,/
11:58.358,258609,/
11:59.194,258910,/
12:00.008,259203,/
12:00.839,259502,/
12:01.683,259806,/
12:02.575,260127,/
12:03.453,260443,/
12:04.314,260753,/
12:05.150,261054,/
12:05.989,261356,/
12:06.817,261654,/
12:07.639,261950,/
12:08.508,262263,/
12:09.383,262578,/
12:10.264,262895,/
12:11.103,263197,/
12:11.925,263493,/
12:12.744,263788,/
12:13.614,264101,/
12:14.486,264415,/
12:15.350,264726,/
12:16.222,265040,/
12:17.058,265341,/
12:17.886,265639,/
12:18.719,265939,/
12:19.561,266242,/
12:20.419,266551,/
12:21.314,266873,/
12:22.192,267189,/
12:23.028,267490,/
12:23.850,267786,/
12:24.672,268082,/
12:25.525,268389,/
12:26.414,268709,/
12:27.286,269023,/
12:28.142,269331,/
12:28.994,269638,/
12:29.825,269937,/
12:30.644,270232,/
12:31.472,270530,/
12:32.342,270843,/
12:33.231,271163,/
12:34.119,271483,/
12:34.958,271785,/
12:35.581,272009,V
12:36.347,272285,/
12:37.200,272592,/
12:38.061,272902,/
12:38.925,273213,/
12:39.800,273528,/
12:40.650,273834,/
12:41.486,274135,/
12:42.306,274430,/
12:43.128,274726,/
12:43.986,275035,/
12:44.894,275362,/
12:45.772,275678,/
12:46.619,275983,/
12:47.450,276282,/
12:48.267,276576,/
12:49.106,276878,/
12:49.961,277186,/
12:50.833,277500,/
12:51.708,277815,/
12:52.586,278131,/
12:53.414,278429,/
12:54.225,278721,/
12:55.053,279019,/
12:55.897,279323,/
12:56.794,279646,/
12:57.675,279963,/
12:58.533,280272,/
12:59.361,280570,/
13:00.203,280873,/
13:01.033,281172,/
13:01.867,281472,/
13:02.736,281785,/
13:03.611,282100,/
13:04.481,282413,/
13:05.206,282674,V
13:05.958,282945,/
13:06.772,283238,/
13:07.642,283551,/
13:08.519,283867,/
13:09.386,284179,/
13:10.253,284491,/
13:11.089,284792,/
13:11.917,285090,/
13:12.753,285391,/
13:13.592,285693,/
13:14.444,286000,/
13:15.339,286322,/
13:16.214,286637,/
13:17.050,286938,/
13:17.867,287232,/
13:18.692,287529,/
13:19.544,287836,/
13:20.381,288137,V
13:21.183,288426,/
13:22.036,288733,/
13:22.894,289042,/
13:23.728,289342,/
13:24.553,289639,/
13:25.372,289934,/
13:26.242,290247,/
13:27.119,290563,/
13:28.008,290883,/
13:28.850,291186,/
13:29.669,291481,/
13:30.503,291781,/
13:31.353,292087,/
13:32.222,292400,/
13:33.089,292712,/
13:33.961,293026,/
13:34.806,293330,/
13:35.639,293630,/
13:36.456,293924,/
13:37.278,294220,/
13:38.142,294531,/
13:39.047,294857,/
13:39.922,295172,/
13:40.764,295475,/
13:41.589,295772,/
13:42.408,296067,/
13:43.072,296306,V
13:43.872,296594,/
13:44.744,296908,/
13:45.606,297218,/
13:46.483,297534,/
13:47.317,297834,/
13:48.133,298128,/
13:48.956,298424,/
13:49.803,298729,/
13:50.689,299048,/
13:51.592,299373,/
13:52.450,299682,/
13:53.272,299978,/
13:54.106,300278,/
13:54.942,300579,/
13:55.789,300884,/
13:56.647,301193,/
13:57.528,301510,/
13:58.397,301823,/
13:59.236,302125,/
14:00.053,302419,/
14:00.872,302714,/
14:01.725,303021,/
14:02.622,303344,/
14:03.503,303661,/
14:04.358,303969,/
14:05.200,304272,/
14:05.847,304505,V
14:06.614,304781,/
14:07.461,305086,/
14:08.322,305396,/
14:09.194,305710,/
14:10.086,306031,/
14:10.931,306335,/
14:11.747,306629,/
14:12.569,306925,/
14:13.403,307225,/
14:14.289,307544,/
14:15.183,307866,/
14:16.053,308179,/
14:16.886,308479,/
14:17.725,308781,/
14:18.553,309079,/
14:19.381,309377,/
14:20.236,309685,/
14:21.114,310001,/
14:21.997,310319,/
14:22.864,310631,/
14:23.681,310925,/
14:24.492,311217,/
14:25.350,311526,/
14:26.228,311842,/
14:27.100,312156,/
14:27.964,312467,/
14:28.811,312772,/
14:29.642,313071,/
14:30.475,313371,/
14:31.300,313668,/
14:32.144,313972,/
14:33.044,314296,/
14:33.925,314613,/
14:34.772,314918,/
14:35.597,315215,/
14:36.422,315512,/
14:37.261,315814,/
14:38.139,316130,/
14:39.011,316444,/
14:39.869,316753,/
14:40.736,317065,/
14:41.378,317296,V
14:42.136,317569,/
14:42.956,317864,/
14:43.800,318168,/
14:44.672,318482,/
14:45.567,318804,/
14:46.433,319116,/
14:47.267,319416,/
14:48.089,319712,/
14:48.939,320018,/
14:49.789,320324,/
14:50.647,320633,/
14:51.519,320947,/
14:52.381,321257,/
14:53.222,321560,/
14:54.042,321855,/
14:54.864,322151,/
14:55.708,322455,/
14:56.606,322778,/
14:57.489,323096,/
14:58.339,323402,/
14:59.181,323705,/
14:59.994,323998,/
15:00.833,324300,/
15:01.681,324605,/
15:02.550,324918,/
15:03.417,325230,/
15:04.308,325551,/
15:05.142,325851,/
15:05.953,326143,/
15:06.611,326380,V
15:07.378,326656,/
15:08.261,326974,/
15:09.158,327297,/
15:10.028,327610,/
15:10.864,327911,/
15:11.703,328213,/
15:12.531,328511,/
15:13.361,328810,/
15:14.211,329116,/
15:15.089,329432,/
15:15.969,329749,/
15:16.833,330060,/
15:17.650,330354,/
15:18.461,330646,/
15:19.314,330953,/
15:20.192,331269,/
15:20.978,331552,V
15:21.772,331838,/
15:22.631,332147,/
15:23.453,332443,/
15:24.283,332742,/
15:25.108,333039,/
15:25.950,333342,/
15:26.833,333660,/
15:27.731,333983,/
15:28.586,334291,/
15:29.406,334586,/
15:30.231,334883,/
15:30.872,335114,V
15:31.664,335399,/
15:32.556,335720,/
15:33.433,336036,/
15:34.289,336344,/
15:35.142,336651,/
15:35.961,336946,/
15:36.781,337241,/
15:37.617,337542,/
15:38.486,337855,/
15:39.375,338175,/
15:40.264,338495,/
15:41.100,338796,/
15:41.908,339087,/
15:42.747,339389,/
15:43.603,339697,/
15:44.472,340010,/
15:45.336,340321,/
15:46.211,340636,/
15:47.053,340939,/
15:47.881,341237,/
15:48.700,341532,/
15:49.528,341830,/
15:50.406,342146,/
15:51.300,342468,/
15:52.169,342781,/
15:53.006,343082,/
15:53.839,343382,/
15:54.658,343677,/
15:55.514,343985,/
15:56.378,344296,/
15:57.244,344608,/
15:58.117,344922,/
15:58.981,345233,/
15:59.806,345530,/
16:00.614,345821,/
16:01.453,346123,/
16:02.314,346433,/
16:03.214,346757,/
16:04.086,347071,/
16:04.933,347376,/
16:05.753,347671,/
16:06.603,347977,/
16:07.442,348279,/
16:08.292,348585,/
16:09.169,348901,/
16:10.033,349212,/
16:10.894,349522,/
16:11.719,349819,/
16:12.425,350073,V
16:13.183,350346,/
16:14.069,350665,/
16:14.961,350986,/
16:15.822,351296,/
16:16.675,351603,/
16:17.506,351902,/
16:18.331,352199,/
16:19.175,352503,/
16:20.022,352808,/
16:20.886,353119,/
16:21.783,353442,/
16:22.639,353750,/
16:23.458,354045,/
16:24.278,354340,/
16:25.106,354638,/
16:25.972,354950,/
16:26.872,355274,/
16:27.750,355590,/
16:28.594,355894,/
16:29.436,356197,/
16:30.122,356444,V
16:30.883,356718,/
16:31.722,357020,/
16:32.594,357334,/
16:33.472,357650,/
16:34.356,357968,/
16:35.181,358265,/
16:35.994,358558,/
16:36.831,358859,/
16:37.692,359169,/
16:38.575,359487,/
16:39.433,359796,/
16:40.303,360109,/
16:41.139,360410,/
16:41.967,360708,/
16:42.786,361003,/
16:43.619,361303,/
16:44.497,361619,/
16:45.394,361942,/
16:46.264,362255,/
16:46.886,362479,V
16:47.647,362753,/
16:48.469,363049,/
16:49.097,363275,V
16:50.028,363610,/
16:50.903,363925,/
16:51.764,364235,/
16:52.636,364549,/
16:53.464,364847,/
16:54.275,365139,/
16:55.106,365438,/
16:55.956,365744,/
16:56.844,366064,/
16:57.739,366386,/
16:58.592,366693,/
16:59.411,366988,/
17:00.250,367290,/
17:01.089,367592,/
17:01.769,367837,V
17:02.561,368122,/
17:03.442,368439,/
17:04.306,368750,/
17:05.153,369055,/
17:05.964,369347,/
17:06.778,369640,/
17:07.631,369947,/
17:08.528,370270,/
17:09.411,370588,/
17:10.267,370896,/
17:11.111,371200,/
17:11.931,371495,/
17:12.764,371795,/
17:13.603,372097,/
17:14.461,372406,/
17:15.342,372723,/
17:16.233,373044,/
17:17.069,373345,/
17:17.878,373636,/
17:18.703,373933,/
17:19.539,374234,/
17:20.425,374553,/
17:21.311,374872,/
17:22.181,375185,/
17:23.019,375487,/
17:23.864,375791,/
17:24.683,376086,/
17:25.511,376384,/
17:26.372,376694,/
17:27.247,377009,/
17:28.131,377327,/
17:28.986,377635,/
17:29.653,377875,V
17:30.400,378144,/
17:31.247,378449,/
17:32.122,378764,/
17:33.006,379082,/
17:33.867,379392,/
17:34.722,379700,/
17:35.550,379998,/
17:36.381,380297,/
17:37.208,380595,/
17:38.050,380898,/
17:38.942,381219,/
17:39.831,381539,/
17:40.681,381845,/
17:41.497,382139,/
17:42.331,382439,/
17:43.161,382738,/
17:44.036,383053,/
17:44.914,383369,/
17:45.617,383622,V
17:46.408,383907,/
17:47.261,384214,/
17:48.081,384509,/
17:48.894,384802,/
17:49.739,385106,/
17:50.608,385419,/
17:51.503,385741,/
17:52.378,386056,/
17:53.208,386355,/
17:54.025,386649,/
17:54.872,386954,/
17:55.731,387263,/
17:56.592,387573,/
17:57.467,387888,/
17:58.328,388198,/
17:59.172,388502,/
18:00.003,388801,/
18:00.822,389096,/
18:01.656,389396,/
18:02.556,389720,/
18:03.267,389976,V
18:04.075,390267,/
18:04.911,390568,/
18:05.742,390867,/
18:06.569,391165,/
18:07.417,391470,/
18:08.278,391780,/
18:09.139,392090,/
18:10.022,392408,/
18:10.881,392717,/
18:11.703,393013,/
18:12.514,393305,/
18:13.353,393607,/
18:14.219,393919,/
18:15.114,394241,/
18:15.983,394554,/
18:16.825,394857,/
18:17.661,395158,/
18:18.497,395459,/
18:19.333,395760,/
18:20.186,396067,/
18:21.061,396382,/
18:21.933,396696,/
18:22.797,397007,/
18:23.617,397302,/
18:24.428,397594,/
18:25.269,397897,/
18:26.150,398214,/
18:27.042,398535,/
18:27.739,398786,V
18:28.528,399070,/
18:29.356,399368,/
18:30.183,399666,/
18:31.014,399965,/
18:31.861,400270,/
18:32.731,400583,/
18:33.636,400909,/
18:34.492,401217,/
18:35.306,401510,/
18:36.128,401806,/
18:36.953,402103,/
18:37.817,402414,/
18:38.703,402733,/
18:39.578,403048,/
18:40.436,403357,/
18:41.289,403664,/
18:42.111,403960,/
18:42.925,404253,/
18:43.772,404558,/
18:44.639,404870,/
18:45.392,405141,V
18:46.203,405433,/
18:47.039,405734,/
18:47.844,406024,/
18:48.692,406329,/
18:49.539,406634,/
18:50.411,406948,/
18:51.278,407260,/
18:52.144,407572,/
18:52.994,407878,/
18:53.828,408178,/
18:54.644,408472,/
18:55.469,408769,/
18:56.097,408995,V
18:56.933,409296,/
18:57.811,409612,/
18:58.647,409913,/
18:59.481,410213,/
19:00.300,410508,/
19:01.142,410811,/
19:02.003,411121,/
19:02.869,411433,/
19:03.747,411749,/
19:04.450,412002,V
19:05.211,412276,/
19:06.017,412566,/
19:06.842,412863,/
19:07.683,413166,/
19:08.564,413483,/
19:09.461,413806,/
19:10.328,414118,/
19:11.153,414415,/
19:11.994,414718,/
19:12.825,415017,/
19:13.669,415321,/
19:14.533,415632,/
19:15.411,415948,/
19:16.083,416190,V
19:16.875,416475,/
19:17.697,416771,/
19:18.511,417064,/
19:19.344,417364,/
19:20.236,417685,/
19:21.119,418003,/
19:21.975,418311,/
19:22.825,418617,/
19:23.647,418913,/
19:24.317,419154,V
19:25.092,419433,/
19:25.944,419740,/
19:26.806,420050,/
19:27.700,420372,/
19:28.558,420681,/
19:29.381,420977,/
19:30.200,421272,/
19:31.031,421571,/
19:31.892,421881,/
19:32.631,422147,V
19:33.436,422437,/
19:34.294,422746,/
19:35.142,423051,/
19:35.975,423351,/
19:36.803,423649,/
19:37.636,423949,/
19:38.511,424264,/
19:39.383,424578,/
19:40.267,424896,/
19:41.103,425197,/
19:41.917,425490,/
19:42.558,425721,V
19:43.356,426008,/
19:44.233,426324,/
19:45.100,426636,/
19:45.972,426950,/
19:46.819,427255,/
19:47.653,427555,/
19:48.481,427853,/
19:49.308,428151,/
19:50.161,428458,/
19:51.067,428784,/
19:51.942,429099,/
19:52.778,429400,/
19:53.600,429696,/
19:54.425,429993,/
19:55.267,430296,/
19:56.144,430612,/
19:57.019,430927,/
19:57.883,431238,/
19:58.594,431494,V
19:59.411,431788,/
20:00.231,432083,/
20:01.047,432377,/
20:01.900,432684,/
20:02.786,433003,/
20:03.678,433324,/
20:04.531,433631,/
20:05.350,433926,/
20:06.194,434230,/
20:06.806,434450,V
20:07.733,434784,/
20:08.600,435096,/
20:09.478,435412,/
20:10.344,435724,/
20:11.189,436028,/
20:12.003,436321,/
20:12.817,436614,/
20:13.672,436922,/
20:14.561,437242,/
20:15.442,437559,/
20:16.294,437866,/
20:17.133,438168,/
20:17.961,438466,/
20:18.797,438767,/
20:19.639,439070,/
20:20.497,439379,/
20:21.381,439697,/
20:22.264,440015,/
20:23.100,440316,/
20:23.911,440608,/
20:24.739,440906,/
20:25.583,441210,/
20:26.461,441526,/
20:27.342,441843,/
20:28.206,442154,/
20:29.053,442459,/
20:29.892,442761,/
20:30.719,443059,/
20:31.550,443358,/
20:32.422,443672,/
20:33.297,443987,/
20:34.181,444305,/
20:35.017,444606,/
20:35.825,444897,/
20:36.653,445195,/
20:37.511,445504,/
20:38.392,445821,/
20:39.261,446134,/
20:40.133,446448,/
20:40.975,446751,/
20:41.750,447030,~
20:41.808,447051,/
20:42.628,447346,/
20:43.453,447643,/
20:43.767,447756,~
20:44.328,447958,/
20:45.225,448281,/
20:46.100,448596,/
20:46.928,448894,/
20:47.750,449190,/
20:48.569,449485,/
20:49.417,449790,/
20:50.289,450104,/
20:51.167,450420,/
20:52.039,450734,/
20:52.911,451048,/
20:53.731,451343,/
20:54.536,451633,/
20:55.372,451934,/
20:56.231,452243,/
20:57.119,452563,/
20:58.000,452880,/
20:58.844,453184,/
20:59.664,453479,/
21:00.511,453784,/
21:01.350,454086,/
21:02.206,454394,/
21:03.083,454710,/
21:03.831,454979,V
21:04.678,455284,/
21:05.522,455588,/
21:06.336,455881,/
21:07.156,456176,/
21:08.025,456489,/
21:08.914,456809,/
21:09.783,457122,/
21:10.625,457425,/
21:11.461,457726,/
21:12.294,458026,/
21:13.139,458330,/
21:13.989,458636,/
21:14.856,458948,/
21:15.744,459268,/
21:16.606,459578,/
21:17.431,459875,/
21:18.242,460167,/
21:19.078,460468,/
21:19.928,460774,/
21:20.822,461096,/
21:21.697,461411,/
21:22.544,461716,/
21:23.386,462019,/
21:24.225,462321,/
21:25.058,462621,/
21:25.903,462925,/
21:26.783,463242,/
21:27.656,463556,/
21:28.525,463869,/
21:29.350,464166,/
21:30.161,464458,/
21:30.994,464758,/
21:31.869,465073,/
21:32.753,465391,/
21:33.619,465703,/
21:34.483,466014,/
21:35.314,466313,/
21:36.150,466614,/
21:36.975,466911,/
21:37.817,467214,/
21:38.694,467530,/
21:39.597,467855,/
21:40.458,468165,/
21:41.272,468458,/
21:42.097,468755,/
21:42.922,469052,/
21:43.778,469360,/
21:44.658,469677,/
21:45.533,469992,/
21:46.400,470304,/
21:47.258,470613,/
21:48.075,470907,/
21:48.889,471200,/
21:49.733,471504,/
21:50.600,471816,/
21:51.492,472137,/
21:52.358,472449,/
21:53.192,472749,/
21:54.008,473043,/
21:54.861,473350,/
21:55.711,473656,/
21:56.578,473968,/
21:57.456,474284,/
21:58.319,474595,/
21:59.172,474902,/
21:59.989,475196,/
22:00.808,475491,/
22:01.653,475795,/
22:02.544,476116,/
22:03.425,476433,/
22:04.275,476739,/
22:05.108,477039,/
22:05.928,477334,/
22:06.769,477637,/
22:07.617,477942,/
22:08.489,478256,/
22:09.367,478572,/
22:10.256,478892,/
22:11.089,479192,/
22:11.892,479481,/
22:12.719,479779,/
22:13.556,480080,/
22:14.439,480398,/
22:15.319,480715,/
22:16.181,481025,/
22:17.022,481328,/
22:17.869,481633,/
22:18.697,481931,/
22:19.528,482230,/
22:20.403,482545,/
22:21.272,482858,/
22:22.153,483175,/
22:23.000,483480,/
22:23.814,483773,/
22:24.628,484066,/
22:25.494,484378,/
22:26.367,484692,/
22:27.231,485003,/
22:28.100,485316,/
22:28.944,485620,/
22:29.781,485921,/
22:30.608,486219,/
22:31.442,486519,/
22:32.306,486830,/
22:33.208,487155,/
22:34.078,487468,/
22:34.908,487767,/
22:35.728,488062,/
22:36.544,488356,/
22:37.389,488660,/
22:38.264,488975,/
22:39.142,489291,/
22:40.006,489602,/
22:40.875,489915,/
22:41.700,490212,/
22:42.511,490504,/
22:43.344,490804,/
22:44.206,491114,/
22:45.092,491433,/
22:45.978,491752,/
22:46.825,492057,/
22:47.633,492348,/
22:48.472,492650,/
22:49.311,492952,/
22:50.175,493263,/
22:51.050,493578,/
22:51.922,493892,/
22:52.783,494202,/
22:53.631,494507,/
22:54.444,494800,/
22:55.264,495095,/
22:56.136,495409,/
22:57.028,495730,/
22:57.897,496043,/
22:58.733,496344,/
22:59.561,496642,/
23:00.389,496940,/
23:01.233,497244,/
23:02.092,497553,/
23:02.747,497789,V
23:03.558,498081,/
23:04.447,498401,/
23:05.272,498698,/
23:06.078,498988,/
23:06.908,499287,/
23:07.753,499591,/
23:08.636,499909,/
23:09.522,500228,/
23:10.381,500537,/
23:11.208,500835,/
23:12.053,501139,/
23:12.886,501439,/
23:13.725,501741,/
23:14.603,502057,/
23:15.475,502371,/
23:16.353,502687,/
23:17.197,502991,/
23:17.881,503237,V
23:18.625,503505,/
23:19.481,503813,/
23:20.361,504130,/
23:21.239,504446,/
23:22.097,504755,/
23:22.944,505060,/
23:23.775,505359,/
23:24.617,505662,/
23:25.450,505962,/
23:26.219,506239,V
23:27.092,506553,/
23:27.978,506872,/
23:28.822,507176,/
23:29.633,507468,/
23:30.456,507764,/
23:31.292,508065,/
23:32.169,508381,/
23:33.042,508695,/
23:33.903,509005,/
23:34.497,509219,V
23:35.344,509524,/
23:36.167,509820,/
23:36.986,510115,/
23:37.839,510422,/
23:38.708,510735,/
23:39.467,511008,V
23:40.272,511298,/
23:41.103,511597,/
23:41.786,511843,V
23:42.556,512120,/
23:43.400,512424,/
23:44.264,512735,/
23:44.928,512974,V
23:45.733,513264,/
23:46.589,513572,/
23:47.436,513877,/
23:48.050,514098,V
23:48.811,514372,/
23:49.539,514634,V
23:50.356,514928,/
23:51.233,515244,/
23:52.094,515554,/
23:52.931,515855,/
23:53.747,516149,/
23:54.578,516448,/
23:55.431,516755,/
23:56.297,517067,/
23:57.167,517380,/
23:58.058,517701,/
23:58.908,518007,/
23:59.725,518301,/
24:00.542,518595,/
24:01.375,518895,/
24:02.250,519210,/
24:03.142,519531,/
24:04.006,519842,/
24:04.842,520143,/
24:05.681,520445,/
24:06.508,520743,/
24:07.336,521041,/
24:08.203,521353,/
24:09.086,521671,/
24:09.967,521988,/
24:10.831,522299,/
24:11.653,522595,/
24:12.450,522882,/
24:13.300,523188,/
24:14.172,523502,/
24:15.047,523817,/
24:15.906,524126,/
24:16.756,524432,/
24:17.586,524731,/
24:18.431,525035,/
24:19.256,525332,/
24:20.108,525639,/
24:21.011,525964,/
24:21.892,526281,/
24:22.736,526585,/
24:23.553,526879,/
24:24.372,527174,/
24:25.208,527475,/
24:26.081,527789,/
24:26.953,528103,/
24:27.814,528413,/
24:28.678,528724,/
24:29.519,529027,/
24:30.344,529324,/
24:31.167,529620,/
24:32.033,529932,/
24:32.914,530249,/
24:33.800,530568,/
24:34.650,530874,/
24:35.464,531167,/
24:36.289,531464,/
24:37.131,531767,/
24:37.992,532077,/
24:38.864,532391,/
24:39.742,532707,/
24:40.594,533014,/
24:41.439,533318,/
24:42.264,533615,/
24:43.086,533911,/
24:43.947,534221,/
24:44.847,534545,/
24:45.722,534860,/
24:46.561,535162,/
24:47.383,535458,/
24:48.197,535751,/
24:49.042,536055,/
24:49.894,536362,/
24:50.775,536679,/
24:51.653,536995,/
24:52.536,537313,/
24:53.364,537611,/
24:54.175,537903,/
24:55.008,538203,/
24:55.856,538508,/
24:56.744,538828,/
24:57.625,539145,/
24:58.481,539453,/
24:59.300,539748,/
25:00.144,540052,/
25:00.975,540351,/
25:01.814,540653,/
25:02.450,540882,V
25:03.275,541179,/
25:04.150,541494,/
25:05.011,541804,/
25:05.828,542098,/
25:06.633,542388,/
25:07.486,542695,/
25:08.264,542975,V
25:09.128,543286,/
25:09.983,543594,/
25:10.836,543901,/
25:11.656,544196,/
25:12.492,544497,/
25:13.322,544796,/
25:14.183,545106,/
25:15.078,545428,/
25:15.969,545749,/
25:16.825,546057,/
25:17.636,546349,/
25:18.456,546644,/
25:19.289,546944,/
25:20.161,547258,/
25:21.033,547572,/
25:21.900,547884,/
25:22.753,548191,/
25:23.597,548495,/
25:24.422,548792,/
25:25.247,549089,/
25:26.117,549402,/
25:27.000,549720,/
25:27.883,550038,/
25:28.728,550342,/
25:29.544,550636,/
25:30.367,550932,/
25:31.217,551238,/
25:32.081,551549,/
25:32.947,551861,/
25:33.819,552175,/
25:34.667,552480,/
25:35.514,552785,/
25:36.339,553082,/
25:37.161,553378,/
25:38.028,553690,/
25:38.928,554014,/
25:39.553,554239,V
25:40.333,554520,/
25:41.161,554818,/
25:41.975,555111,/
25:42.811,555412,/
25:43.661,555718,/
25:44.533,556032,/
25:45.406,556346,/
25:46.297,556667,/
25:47.136,556969,/
25:47.942,557259,/
25:48.767,557556,/
25:49.614,557861,/
25:50.503,558181,/
25:51.275,558459,V
25:52.072,558746,/
25:52.903,559045,/
25:53.739,559346,/
25:54.564,559643,/
25:55.394,559942,/
25:56.258,560253,/
25:57.000,560520,V
25:57.869,560833,/
25:58.736,561145,/
25:59.561,561442,/
26:00.369,561733,/
26:01.211,562036,/
26:02.086,562351,/
26:02.964,562667,/
26:03.822,562976,/
26:04.675,563283,/
26:05.503,563581,/
26:06.342,563883,/
26:07.167,564180,/
26:08.011,564484,/
26:08.911,564808,/
26:09.803,565129,/
26:10.656,565436,/
26:11.475,565731,/
26:12.297,566027,/
26:13.125,566325,/
26:13.994,566638,/
26:14.864,566951,/
26:15.514,567185,V
26:16.314,567473,/
26:17.169,567781,/
26:17.992,568077,/
26:18.808,568371,/
26:19.656,568676,/
26:20.325,568917,V
26:21.147,569213,/
26:22.036,569533,/
26:22.881,569837,/
26:23.692,570129,/
26:24.522,570428,/
26:25.139,570650,V
26:25.936,570937,/
26:26.803,571249,/
26:27.678,571564,/
26:28.531,571871,/
26:29.372,572174,/
26:30.028,572410,V
26:30.797,572687,/
26:31.636,572989,/
26:32.536,573313,/
26:33.417,573630,/
26:34.269,573937,/
26:35.100,574236,/
26:35.911,574528,/
26:36.744,574828,/
26:37.603,575137,/
26:38.475,575451,/
26:39.339,575762,/
26:40.225,576081,/
26:41.061,576382,/
26:41.881,576677,/
26:42.706,576974,/
26:43.553,577279,/
26:44.436,577597,/
26:45.328,577918,/
26:46.189,578228,/
26:47.014,578525,/
26:47.844,578824,/
26:48.678,579124,/
26:49.519,579427,/
26:50.381,579737,/
26:51.267,580056,/
26:52.144,580372,/
26:53.003,580681,/
26:53.822,580976,/
26:54.633,581268,/
26:55.489,581576,/
26:56.375,581895,/
26:57.250,582210,/
26:58.103,582517,/
26:58.953,582823,/
26:59.775,583119,/
27:00.611,583420,/
27:01.444,583720,/
27:02.300,584028,/
27:03.197,584351,/
27:04.086,584671,/
27:04.931,584975,/
27:05.742,585267,/
27:06.567,585564,/
27:07.408,585867,/
27:08.292,586185,/
27:09.158,586497,/
27:10.014,586805,/
27:10.869,587113,/
27:11.703,587413,/
27:12.528,587710,/
27:13.356,588008,/
27:14.228,588322,/
27:15.114,588641,/
27:16.000,588960,/
27:16.842,589263,/
27:17.658,589557,/
27:18.486,589855,/
27:19.336,590161,/
27:20.203,590473,/
27:21.069,590785,/
27:21.939,591098,/
27:22.789,591404,/
27:23.628,591706,/
27:24.447,592001,/
27:25.272,592298,/
27:26.150,592614,/
27:27.047,592937,/
27:27.917,593250,/
27:28.753,593551,/
27:29.583,593850,/
27:30.403,594145,/
27:31.247,594449,/
27:32.103,594757,/
27:32.967,595068,/
27:33.850,595386,/
27:34.711,595696,/
27:35.536,595993,/
27:36.347,596285,/
27:37.186,596587,/
27:38.053,596899,/
27:38.953,597223,/
27:39.819,597535,/
27:40.661,597838,/
27:41.492,598137,/
27:42.322,598436,/
27:43.153,598735,/
27:44.000,599040,/
27:44.883,599358,/
27:45.758,599673,/
27:46.628,599986,/
27:47.453,600283,/
27:48.267,600576,/
27:49.106,600878,/
27:49.986,601195,/
27:50.872,601514,/
27:51.728,601822,/
27:52.583,602130,/
27:53.406,602426,/
27:54.239,602726,/
27:55.061,603022,/
27:55.903,603325,/
27:56.794,603646,/
27:57.689,603968,/
27:58.544,604276,/
27:59.364,604571,/
28:00.192,604869,/
28:01.022,605168,/
28:01.889,605480,/
28:02.761,605794,/
28:03.628,606106,/
28:04.486,606415,/
28:05.333,606720,/
28:06.153,607015,/
28:06.969,607309,/
28:07.822,607616,/
28:08.697,607931,/
28:09.592,608253,/
28:10.453,608563,/
28:11.283,608862,/
28:12.106,609158,/
28:12.956,609464,/
28:13.808,609771,/
28:14.672,610082,/
28:15.544,610396,/
28:16.397,610703,/
28:17.239,611006,/
28:18.067,611304,/
28:18.892,611601,/
28:19.733,611904,/
28:20.642,612231,/
28:21.522,612548,/
28:22.369,612853,/
28:23.200,613152,/
28:24.019,613447,/
28:24.856,613748,/
28:25.708,614055,/
28:26.581,614369,/
28:27.447,614681,/
28:28.333,615000,/
28:29.164,615299,/
28:29.972,615590,/
28:30.806,615890,/
28:31.653,616195,/
28:32.542,616515,/
28:33.436,616837,/
28:34.297,617147,/
28:35.122,617444,/
28:35.958,617745,/
28:36.786,618043,/
28:37.628,618346,/
28:38.492,618657,/
28:39.128,618886,V
28:39.936,619177,/
28:40.797,619487,/
28:41.614,619781,/
28:42.428,620074,/
28:43.272,620378,/
28:44.161,620698,/
28:45.050,621018,/
28:45.906,621326,/
28:46.758,621633,/
28:47.581,621929,/
28:48.411,622228,/
28:49.239,622526,/
28:50.092,622833,/
28:50.728,623062,V
28:51.575,623367,/
28:52.431,623675,/
28:53.244,623968,/
28:54.072,624266,/
28:54.897,624563,/
28:55.761,624874,/
28:56.644,625192,/
28:57.292,625425,V
28:58.083,625710,/
28:58.939,626018,/
28:59.761,626314,/
29:00.581,626609,/
29:01.414,626909,/
29:02.286,627223,/
29:03.172,627542,/
29:03.811,627772,V
29:04.597,628055,/
29:05.425,628353,/
29:06.253,628651,/
29:07.103,628957,/
29:07.964,629267,/
29:08.833,629580,/
29:09.703,629893,/
29:10.553,630199,/
29:11.392,630501,/
29:12.211,630796,/
29:13.031,631091,/
29:13.889,631400,/
29:14.794,631726,/
29:15.675,632043,/
29:16.517,632346,/
29:17.219,632599,V
29:17.975,632871,/
29:18.814,633173,/
29:19.667,633480,/
29:20.533,633792,/
29:21.403,634105,/
29:22.294,634426,/
29:23.122,634724,/
29:23.931,635015,/
29:24.758,635313,/
29:25.600,635616,/
29:26.489,635936,/
29:27.181,636185,V
29:27.989,636476,/
29:28.819,636775,/
29:29.661,637078,/
29:30.486,637375,/
29:31.314,637673,/
29:32.178,637984,/
29:33.050,638298,/
29:33.931,638615,/
29:34.792,638925,/
29:35.611,639220,/
29:36.419,639511,/
29:37.272,639818,/
29:38.147,640133,/
29:39.025,640449,/
29:39.886,640759,/
29:40.733,641064,/
29:41.569,641365,/
29:42.403,641665,/
29:43.228,641962,/
29:44.072,642266,/
29:44.975,642591,/
29:45.850,642906,/
29:46.694,643210,/
29:47.514,643505,/
29:48.339,643802,/
29:49.178,644104,/
29:50.058,644421,/
29:50.936,644737,/
29:51.792,645045,/
29:52.661,645358,/
29:53.489,645656,/
29:54.303,645949,/
29:54.892,646161,V
29:55.681,646445,/
29:56.547,646757,/
29:57.439,647078,/
29:58.306,647390,/
29:58.956,647624,V
29:59.708,647895,/
30:00.556,648200,/
30:01.397,648503,/
30:02.264,648815,/
30:03.136,649129,/
30:04.003,649441,/
30:04.856,649748,/
