Time,Sample,Type
0:00.025,9,+
0:00.139,50,R
0:00.867,312,V
0:02.319,835,R
0:02.994,1078,V
0:04.411,1588,R
0:05.058,1821,V
0:06.506,2342,R
0:07.203,2593,V
0:08.642,3111,R
0:09.325,3357,V
0:10.714,3857,R
0:11.367,4092,V
0:12.881,4637,R
0:13.581,4889,V
0:15.025,5409,R
0:15.689,5648,V
0:17.111,6160,R
0:17.800,6408,V
0:19.275,6939,R
0:19.975,7191,V
0:21.389,7700,R
0:22.047,7937,V
0:23.436,8437,R
0:24.150,8694,V
0:25.597,9215,R
0:26.286,9463,V
0:27.636,9949,R
0:28.322,10196,V
0:29.692,10689,R
0:30.386,10939,V
0:31.806,11450,R
0:32.497,11699,V
0:33.881,12197,R
0:34.544,12436,V
0:35.933,12936,R
0:36.667,13200,V
0:37.078,13348,V
0:38.103,13717,L
0:38.522,13868,+
0:38.797,13967,V
0:39.236,14125,V
0:39.619,14263,V
0:40.039,14414,+
0:40.339,14522,L
0:40.736,14665,[
0:40.803,14689,+
0:41.372,14894,!
0:41.717,15018,!
0:42.050,15138,!
0:42.383,15258,!
0:42.742,15387,!
0:43.108,15519,!
0:43.450,15642,!
0:43.775,15759,!
0:44.183,15906,!
0:44.486,16015,!
0:44.828,16138,!
0:45.172,16262,!
0:45.508,16383,!
0:45.822,16496,!
0:46.142,16611,!
0:46.417,16710,!
0:46.728,16822,!
0:47.044,16936,!
0:47.375,17055,!
0:47.828,17218,!
0:48.183,17346,!
0:48.636,17509,!
0:48.939,17618,!
0:49.250,17730,!
0:49.603,17857,!
0:49.933,17976,!
0:50.367,18132,!
0:50.711,18256,!
0:50.972,18350,]
0:51.100,18396,+
0:52.292,18825,R
0:52.972,19070,V
0:54.386,19579,R
0:54.764,19715,[
0:54.889,19760,+
0:55.100,19836,!
0:55.456,19964,!
0:55.769,20077,!
0:56.064,20183,!
0:56.381,20297,!
0:56.672,20402,!
0:57.003,20521,!
0:57.333,20640,!
0:57.633,20748,!
0:57.919,20851,!
0:58.228,20962,!
0:58.589,21092,!
0:58.842,21183,!
0:59.208,21315,!
0:59.533,21432,!
1:00.022,21608,!
1:00.364,21731,]
1:00.631,21827,+
1:01.436,22117,R
1:01.839,22262,+
1:02.175,22383,V
1:02.536,22513,V
1:02.958,22665,V
1:03.261,22774,+
1:03.564,22883,L
1:04.372,23174,L
1:05.283,23502,L
1:05.961,23746,V
1:07.158,24177,R
1:08.153,24535,L
1:09.072,24866,L
1:09.958,25185,L
1:10.822,25496,L
1:11.186,25627,+
1:11.550,25758,V
1:12.678,26164,L
1:13.331,26399,V
1:14.472,26810,R
1:15.153,27055,V
1:15.711,27256,+
1:16.272,27458,R
1:17.181,27785,L
1:17.886,28039,V
1:18.283,28182,V
1:19.769,28717,R
1:20.458,28965,V
1:20.875,29115,V
1:21.819,29455,R
1:22.908,29847,L
1:23.578,30088,V
1:24.908,30567,R
1:25.642,30831,V
1:26.836,31261,R
1:27.817,31614,L
1:28.733,31944,L
1:29.678,32284,L
1:30.658,32637,L
1:31.625,32985,L
1:32.608,33339,L
1:33.344,33604,V
1:34.433,33996,R
1:35.408,34347,L
1:36.411,34708,L
1:37.433,35076,L
1:38.389,35420,L
1:39.333,35760,L
1:40.292,36105,L
1:41.219,36439,L
1:42.200,36792,L
1:43.186,37147,L
1:44.167,37500,L
1:45.133,37848,L
1:46.061,38182,L
1:46.969,38509,L
1:47.964,38867,L
1:48.983,39234,L
1:49.931,39575,L
1:50.900,39924,L
1:51.844,40264,L
1:52.775,40599,L
1:53.753,40951,L
1:54.725,41301,L
1:55.706,41654,L
1:56.667,42000,L
1:57.586,42331,L
1:58.500,42660,L
1:59.403,42985,L
2:00.372,43334,L
2:01.347,43685,L
2:02.278,44020,L
2:03.206,44354,L
2:04.133,44688,L
2:05.025,45009,L
2:05.961,45346,L
2:06.908,45687,L
2:07.847,46025,L
2:08.581,46289,V
2:09.667,46680,L
2:10.286,46903,V
2:11.408,47307,R
2:12.211,47596,V
2:12.633,47748,V
2:13.386,48019,L
2:13.703,48133,+
2:14.019,48247,V
2:15.192,48669,R
2:15.792,48885,V
2:17.031,49331,R
2:17.664,49559,V
2:18.958,50025,R
2:19.619,50263,V
2:20.900,50724,R
2:21.522,50948,V
2:22.731,51383,R
2:23.342,51603,V
2:24.692,52089,R
2:25.333,52320,V
2:26.625,52785,R
2:27.256,53012,V
2:28.531,53471,R
2:29.144,53692,V
2:30.444,54160,R
2:31.114,54401,V
2:32.411,54868,R
2:33.064,55103,V
2:34.328,55558,R
2:34.931,55775,V
2:36.294,56266,R
2:36.967,56508,V
2:38.261,56974,R
2:38.906,57206,V
2:40.183,57666,R
2:40.814,57893,V
2:42.139,58370,R
2:42.797,58607,V
2:44.136,59089,R
2:44.778,59320,V
2:46.069,59785,R
2:46.678,60004,V
2:48.031,60491,R
2:48.697,60731,V
2:50.047,61217,R
2:50.669,61441,V
2:51.975,61911,R
2:52.600,62136,V
2:53.892,62601,R
2:54.542,62835,V
2:55.900,63324,R
2:56.533,63552,V
2:57.867,64032,R
2:58.469,64249,V
2:59.803,64729,R
3:00.464,64967,V
3:01.825,65457,R
3:02.447,65681,V
3:03.769,66157,R
3:04.375,66375,V
3:05.719,66859,R
3:06.381,67097,V
3:07.753,67591,R
3:08.386,67819,V
3:09.722,68300,R
3:10.336,68521,V
3:11.653,68995,R
3:12.242,69207,V
3:13.703,69733,R
3:14.258,69933,V
3:15.650,70434,R
3:16.292,70665,V
3:17.586,71131,R
3:18.167,71340,V
3:19.625,71865,R
3:20.197,72071,V
3:21.614,72581,R
3:22.197,72791,V
3:23.553,73279,R
3:24.150,73494,V
3:25.608,74019,R
3:26.203,74233,V
3:27.572,74726,R
3:28.175,74943,V
3:29.525,75429,R
3:30.108,75639,V
3:31.589,76172,R
3:32.167,76380,V
3:33.572,76886,R
3:34.117,77082,V
3:35.511,77584,R
3:36.094,77794,V
3:37.583,78330,R
3:38.147,78533,V
3:39.575,79047,R
3:40.136,79249,V
3:41.519,79747,R
3:42.106,79958,V
3:43.583,80490,R
3:44.158,80697,V
3:45.589,81212,R
3:46.139,81410,V
3:47.525,81909,R
3:48.114,82121,V
3:49.564,82643,R
3:50.122,82844,V
3:51.542,83355,R
3:52.103,83557,V
3:53.506,84062,R
3:54.167,84300,V
3:55.572,84806,R
3:56.150,85014,V
3:57.539,85514,R
3:58.089,85712,V
3:59.486,86215,R
4:00.069,86425,V
4:00.389,86540,+
4:00.711,86656,R
4:01.775,87039,L
4:02.144,87172,[
4:02.261,87214,+
4:02.425,87273,!
4:02.786,87403,!
4:03.114,87521,!
4:03.456,87644,!
4:03.758,87753,!
4:04.114,87881,!
4:04.442,87999,!
4:04.781,88121,!
4:05.164,88259,!
4:05.533,88392,!
4:05.881,88517,!
4:06.217,88638,!
4:06.433,88716,]
4:06.633,88788,+
4:07.586,89131,R
4:07.894,89242,[
4:08.111,89320,+
4:08.256,89372,!
4:08.547,89477,!
4:08.964,89627,!
4:09.350,89766,!
4:09.694,89890,!
4:10.006,90002,!
4:10.364,90131,!
4:10.658,90237,!
4:11.000,90360,!
4:11.294,90466,!
4:11.650,90594,!
4:12.011,90724,!
4:12.369,90853,!
4:12.683,90966,!
4:12.992,91077,!
4:13.292,91185,!
4:13.653,91315,!
4:13.958,91425,!
4:14.272,91538,!
4:14.631,91667,!
4:14.933,91776,!
4:15.219,91879,!
4:15.542,91995,!
4:15.836,92101,!
4:16.139,92210,!
4:16.447,92321,!
4:16.733,92424,!
4:17.011,92524,!
4:17.300,92628,!
4:17.603,92737,!
4:17.883,92838,!
4:18.203,92953,!
4:18.469,93049,!
4:18.811,93172,!
4:19.158,93297,!
4:19.528,93430,!
4:19.831,93539,!
4:20.189,93668,!
4:20.561,93802,!
4:20.947,93941,!
4:21.450,94122,]
4:21.722,94220,+
4:22.325,94437,L
4:23.000,94680,V
4:24.461,95206,L
4:25.461,95566,L
4:26.444,95920,L
4:27.119,96163,V
4:27.500,96300,V
4:29.181,96905,L
4:29.467,97008,[
4:29.586,97051,+
4:29.806,97130,!
4:30.222,97280,!
4:30.511,97384,!
4:30.819,97495,!
4:31.133,97608,!
4:31.469,97729,!
4:31.736,97825,!
4:32.053,97939,!
4:32.372,98054,!
4:32.689,98168,!
4:32.992,98277,!
4:33.267,98376,!
4:33.567,98484,!
4:33.753,98551,!
4:34.031,98651,!
4:34.306,98750,!
4:34.600,98856,!
4:34.850,98946,!
4:35.156,99056,!
4:35.450,99162,!
4:35.769,99277,!
4:36.039,99374,!
4:36.364,99491,!
4:36.658,99597,!
4:36.919,99691,!
4:37.247,99809,!
4:37.525,99909,!
4:37.781,100001,!
4:38.075,100107,!
4:38.372,100214,!
4:38.644,100312,!
4:38.956,100424,!
4:39.292,100545,!
4:39.642,100671,!
4:40.011,100804,!
4:40.433,100956,!
4:40.906,101126,]
4:41.069,101185,+
4:41.731,101423,L
4:42.542,101715,V
4:43.147,101933,~
4:43.742,102147,L
4:44.394,102382,V
4:45.506,102782,L
4:46.356,103088,L
4:47.183,103386,L
4:48.044,103696,L
4:48.906,104006,L
4:49.739,104306,L
4:50.550,104598,L
4:51.350,104886,L
4:52.153,105175,L
4:52.908,105447,L
4:53.706,105734,L
4:54.558,106041,L
4:55.386,106339,L
4:56.189,106628,L
4:56.997,106919,L
4:57.772,107198,L
4:58.528,107470,L
4:59.297,107747,L
5:00.092,108033,L
5:00.872,108314,L
5:01.614,108581,L
5:01.956,108704,~
5:02.378,108856,L
5:03.106,109118,L
5:03.853,109387,L
5:04.594,109654,L
5:05.317,109914,L
5:06.075,110187,L
5:06.861,110470,L
5:07.631,110747,L
5:08.381,111017,L
5:09.122,111284,L
5:09.836,111541,L
5:10.436,111757,~
5:10.569,111805,L
5:11.286,112063,L
5:12.069,112345,L
5:12.844,112624,L
5:13.600,112896,L
5:14.331,113159,L
5:15.075,113427,L
5:15.819,113695,L
5:16.558,113961,L
5:17.267,114216,L
5:18.036,114493,L
5:18.811,114772,L
5:19.592,115053,L
5:20.347,115325,L
5:20.747,115469,~
5:21.092,115593,L
5:21.811,115852,L
5:22.522,116108,L
5:23.256,116372,L
5:24.019,116647,L
5:24.786,116923,L
5:25.550,117198,L
5:26.283,117462,L
5:26.989,117716,L
5:27.700,117972,L
5:28.361,118210,L
5:29.017,118446,L
5:29.706,118694,L
5:30.383,118938,L
5:31.122,119204,L
5:31.808,119451,L
5:32.494,119698,L
5:33.183,119946,L
5:33.825,120177,L
5:34.514,120425,L
5:35.208,120675,L
5:35.483,120774,~
5:35.906,120926,L
5:36.672,121202,L
5:37.394,121462,L
5:38.089,121712,L
5:38.300,121788,~
5:38.822,121976,L
5:39.506,122222,L
5:40.250,122490,L
5:40.964,122747,L
5:41.736,123025,L
5:42.544,123316,L
5:43.342,123603,L
5:44.125,123885,L
5:44.889,124160,L
5:45.644,124432,L
5:45.983,124554,~
5:46.400,124704,L
5:47.161,124978,L
5:47.950,125262,L
5:48.731,125543,L
5:49.519,125827,L
5:50.281,126101,L
5:51.039,126374,L
5:51.803,126649,L
5:52.539,126914,L
5:53.278,127180,L
5:54.058,127461,L
5:54.867,127752,L
5:55.650,128034,L
5:56.419,128311,L
5:57.164,128579,L
5:57.903,128845,L
5:58.633,129108,L
5:59.394,129382,L
6:00.197,129671,L
6:00.992,129957,L
6:01.750,130230,L
6:02.511,130504,L
6:03.289,130784,L
6:04.044,131056,L
6:04.758,131313,L
6:05.531,131591,L
6:06.328,131878,L
6:07.125,132165,L
6:07.911,132448,L
6:08.681,132725,L
6:09.422,132992,L
6:10.169,133261,L
6:10.925,133533,L
6:11.703,133813,L
6:12.506,134102,L
6:13.294,134386,L
6:14.067,134664,L
6:14.842,134943,L
6:15.608,135219,L
6:16.367,135492,L
6:17.122,135764,L
6:17.911,136048,L
6:18.731,136343,L
6:19.544,136636,L
6:20.333,136920,L
6:21.089,137192,L
6:21.853,137467,L
6:22.603,137737,L
6:23.378,138016,L
6:24.203,138313,L
6:25.025,138609,L
6:25.814,138893,L
6:26.617,139182,L
6:27.419,139471,L
6:28.194,139750,L
6:28.950,140022,L
6:29.756,140312,L
6:30.572,140606,L
6:31.414,140909,L
6:32.231,141203,L
6:33.019,141487,L
6:33.792,141765,L
6:34.575,142047,L
6:35.372,142334,L
6:36.211,142636,L
6:37.031,142931,L
6:37.842,143223,L
6:38.656,143516,L
6:39.458,143805,L
6:40.253,144091,L
6:41.039,144374,L
6:41.817,144654,L
6:42.669,144961,L
6:43.525,145269,L
6:44.339,145562,L
6:45.144,145852,L
6:45.942,146139,L
6:46.703,146413,L
6:47.525,146709,L
6:48.381,147017,L
6:49.219,147319,L
6:50.036,147613,L
6:50.864,147911,L
6:51.658,148197,L
6:52.453,148483,L
6:53.225,148761,L
6:54.050,149058,L
6:54.875,149355,L
6:55.700,149652,L
6:56.503,149941,L
6:57.289,150224,L
6:58.053,150499,L
6:58.733,150744,~
6:58.825,150777,L
6:59.636,151069,L
7:00.464,151367,L
7:01.117,151602,~
7:01.258,151653,L
7:02.058,151941,L
7:02.836,152221,L
7:03.614,152501,L
7:04.383,152778,L
7:05.136,153049,L
7:05.922,153332,L
7:06.758,153633,L
7:07.572,153926,L
7:08.350,154206,L
7:09.111,154480,L
7:09.878,154756,L
7:10.611,155020,L
7:11.400,155304,L
7:12.219,155599,L
7:13.022,155888,L
7:13.806,156170,L
7:14.600,156456,L
7:15.375,156735,L
7:16.139,157010,L
7:16.875,157275,L
7:17.647,157553,L
7:18.456,157844,L
7:19.267,158136,L
7:20.058,158421,L
7:20.836,158701,L
7:21.592,158973,L
7:22.353,159247,L
7:23.125,159525,L
7:23.819,159775,~
7:23.928,159814,L
7:24.717,160098,L
7:25.506,160382,L
7:26.278,160660,L
7:27.039,160934,L
7:27.433,161076,~
7:27.811,161212,L
7:28.561,161482,L
7:29.292,161745,L
7:30.089,162032,L
7:30.914,162329,L
7:31.692,162609,L
7:32.450,162882,L
7:33.208,163155,L
7:33.964,163427,L
7:34.706,163694,L
7:35.497,163979,L
7:36.289,164264,L
7:37.081,164549,L
7:37.861,164830,L
7:38.653,165115,L
7:39.408,165387,L
7:40.158,165657,L
7:40.881,165917,L
7:41.656,166196,L
7:42.461,166486,L
7:43.264,166775,L
7:44.039,167054,L
7:44.814,167333,L
7:45.558,167601,L
7:46.317,167874,L
7:47.072,168146,L
7:47.853,168427,L
7:48.642,168711,L
7:49.425,168993,L
7:50.181,169265,L
7:50.944,169540,L
7:51.708,169815,L
7:52.444,170080,L
7:53.167,170340,L
7:53.514,170465,~
7:53.958,170625,L
7:54.783,170922,L
7:55.567,171204,L
7:56.322,171476,L
7:57.067,171744,L
7:57.811,172012,L
7:58.553,172279,L
7:59.308,172551,L
8:00.083,172830,L
8:00.869,173113,L
8:01.644,173392,L
8:02.178,173584,~
8:02.425,173673,L
8:03.186,173947,L
8:03.942,174219,L
8:04.667,174480,L
8:05.439,174758,L
8:06.236,175045,L
8:07.036,175333,L
8:07.825,175617,L
8:08.603,175897,L
8:09.350,176166,L
8:10.114,176441,L
8:10.867,176712,L
8:11.647,176993,L
8:12.442,177279,L
8:13.239,177566,L
8:14.003,177841,L
8:14.783,178122,L
8:15.561,178402,L
8:16.314,178673,L
8:17.050,178938,L
8:17.856,179228,L
8:18.681,179525,L
8:19.472,179810,L
8:20.236,180085,L
8:20.997,180359,L
8:21.753,180631,L
8:22.517,180906,L
8:23.283,181182,L
8:24.078,181468,L
8:24.889,181760,L
8:25.672,182042,L
8:26.469,182329,L
8:27.236,182605,L
8:27.992,182877,L
8:28.719,183139,L
8:29.519,183427,L
8:30.325,183717,L
8:31.128,184006,L
8:31.917,184290,L
8:32.692,184569,L
8:33.447,184841,L
8:34.225,185121,L
8:34.975,185391,L
8:35.761,185674,L
8:36.567,185964,L
8:37.297,186227,~
8:37.375,186255,L
8:38.150,186534,L
8:38.942,186819,L
8:39.053,186859,~
8:39.717,187098,L
8:40.478,187372,L
8:41.228,187642,L
8:42.047,187937,L
8:42.864,188231,L
8:43.664,188519,L
8:44.433,188796,L
8:45.203,189073,L
8:45.972,189350,L
8:46.731,189623,L
8:47.519,189907,L
8:48.336,190201,L
8:49.139,190490,L
8:49.936,190777,L
8:50.747,191069,L
8:51.528,191350,L
8:52.283,191622,L
8:53.042,191895,L
8:53.844,192184,L
8:54.681,192485,L
8:55.506,192782,L
8:56.294,193066,L
8:57.058,193341,L
8:57.850,193626,L
8:58.622,193904,L
8:59.411,194188,L
9:00.231,194483,L
9:01.053,194779,L
9:01.853,195067,L
9:02.664,195359,L
9:03.456,195644,L
9:04.228,195922,L
9:04.989,196196,L
9:05.817,196494,L
9:06.656,196796,L
9:07.481,197093,L
9:08.267,197376,L
9:09.053,197659,L
9:09.836,197941,L
9:10.611,198220,L
9:11.428,198514,L
9:12.267,198816,L
9:13.094,199114,L
9:13.928,199414,L
9:14.744,199708,L
9:15.531,199991,L
9:16.308,200271,L
9:17.092,200553,L
9:17.914,200849,L
9:18.769,201157,L
9:19.592,201453,L
9:20.397,201743,L
9:21.197,202031,L
9:22.008,202323,L
9:22.778,202600,L
9:23.594,202894,L
9:24.428,203194,L
9:25.256,203492,L
9:26.081,203789,L
9:26.892,204081,L
9:27.672,204362,L
9:28.450,204642,L
9:29.233,204924,L
9:30.081,205229,L
9:30.922,205532,L
9:31.731,205823,L
9:32.536,206113,L
9:33.333,206400,L
9:34.128,206686,L
9:34.908,206967,L
9:35.728,207262,L
9:36.544,207556,L
9:37.372,207854,L
9:38.197,208151,L
9:38.994,208438,L
9:39.767,208716,L
9:40.542,208995,L
9:41.322,209276,L
9:42.164,209579,L
9:43.014,209885,L
9:43.828,210178,L
9:44.622,210464,L
9:45.431,210755,L
9:46.228,211042,L
9:47.014,211325,L
9:47.833,211620,L
9:48.669,211921,L
9:49.494,212218,L
9:50.317,212514,L
9:51.119,212803,L
9:51.914,213089,L
9:52.672,213362,L
9:53.503,213661,L
9:54.356,213968,L
9:55.194,214270,L
9:56.006,214562,L
9:56.825,214857,L
9:57.619,215143,L
9:58.425,215433,L
9:59.222,215720,L
10:00.058,216021,L
10:00.897,216323,L
10:01.758,216633,L
10:02.575,216927,L
10:03.369,217213,L
10:04.169,217501,L
10:04.956,217784,L
10:05.808,218091,L
10:06.689,218408,L
10:07.528,218710,L
10:08.356,219008,L
10:09.181,219305,L
10:10.006,219602,L
10:10.803,219889,L
10:11.631,220187,L
10:12.486,220495,L
10:13.339,220802,L
10:14.178,221104,L
10:15.006,221402,L
10:15.825,221697,L
10:16.606,221978,L
10:17.458,222285,L
10:18.331,222599,L
10:19.192,222909,L
10:20.025,223209,L
10:20.861,223510,L
10:21.678,223804,L
10:22.506,224102,L
10:23.322,224396,L
10:24.181,224705,L
10:25.056,225020,L
10:25.919,225331,L
10:26.756,225632,L
10:27.572,225926,L
10:28.386,226219,L
10:29.203,226513,L
10:30.089,226832,L
10:30.961,227146,L
10:31.817,227454,L
10:32.647,227753,L
10:33.481,228053,L
10:34.306,228350,L
10:35.111,228640,L
10:35.964,228947,L
10:36.842,229263,L
10:37.694,229570,L
10:38.542,229875,L
10:39.372,230174,L
10:40.181,230465,L
10:40.992,230757,L
10:41.881,231077,L
10:42.758,231393,L
10:43.600,231696,L
10:44.442,231999,L
10:45.261,232294,L
10:46.103,232597,L
10:46.925,232893,L
10:47.789,233204,L
10:48.672,233522,L
10:49.567,233844,L
10:50.408,234147,L
10:51.236,234445,L
10:52.053,234739,L
10:52.856,235028,L
10:53.733,235344,L
10:54.614,235661,L
10:55.469,235969,L
10:56.303,236269,L
10:57.142,236571,L
10:57.978,236872,L
10:58.781,237161,L
10:59.622,237464,L
11:00.506,237782,L
11:01.372,238094,L
11:02.233,238404,L
11:03.072,238706,L
11:03.889,239000,L
11:04.697,239291,L
11:05.569,239605,L
11:06.447,239921,L
11:07.308,240231,L
11:08.158,240537,L
11:08.992,240837,L
11:09.844,241144,L
11:10.661,241438,L
11:11.519,241747,L
11:12.411,242068,L
11:13.311,242392,L
11:14.175,242703,L
11:15.014,243005,L
11:15.847,243305,L
11:16.669,243601,L
11:17.539,243914,L
11:18.436,244237,L
11:19.322,244556,L
11:20.164,244859,L
11:21.025,245169,L
11:21.875,245475,L
11:22.683,245766,L
11:23.544,246076,L
11:24.439,246398,L
11:25.333,246720,L
11:26.219,247039,L
11:27.064,247343,L
11:27.886,247639,L
11:28.725,247941,L
11:29.606,248258,L
11:30.500,248580,L
11:31.381,248897,L
11:32.244,249208,L
11:33.103,249517,L
11:33.967,249828,L
11:34.794,250126,L
11:35.675,250443,L
11:36.594,250774,L
11:37.500,251100,L
11:38.383,251418,L
11:39.225,251721,L
11:40.078,252028,L
11:40.914,252329,L
11:41.814,252653,L
11:42.725,252981,L
11:43.600,253296,L
11:44.472,253610,L
11:45.369,253933,L
11:46.225,254241,L
11:47.058,254541,L
11:47.972,254870,L
11:48.875,255195,L
11:49.775,255519,L
11:50.650,255834,L
11:51.497,256139,L
11:52.356,256448,L
11:53.228,256762,L
11:54.128,257086,L
11:55.025,257409,L
11:55.906,257726,L
11:56.781,258041,L
11:57.656,258356,L
11:58.503,258661,L
11:59.378,258976,L
12:00.283,259302,L
12:01.211,259636,L
12:02.094,259954,L
12:02.942,260259,L
12:03.797,260567,L
12:04.625,260865,L
12:05.511,261184,L
12:06.433,261516,L
12:07.336,261841,L
12:08.211,262156,L
12:09.108,262479,L
12:09.969,262789,L
12:10.803,263089,L
12:11.694,263410,L
12:12.606,263738,L
12:13.522,264068,L
12:14.417,264390,L
12:15.278,264700,L
12:16.136,265009,L
12:17.022,265328,L
12:17.928,265654,L
12:18.844,265984,L
12:19.733,266304,L
12:20.614,266621,L
12:21.494,266938,L
12:22.356,267248,L
12:23.217,267558,L
12:24.119,267883,L
12:25.053,268219,L
12:25.944,268540,L
12:26.803,268849,L
12:27.667,269160,L
12:28.511,269464,L
12:29.406,269786,L
12:30.344,270124,L
12:31.253,270451,L
12:32.147,270773,L
12:33.050,271098,L
12:33.919,271411,L
12:34.761,271714,L
12:35.661,272038,L
12:36.583,272370,L
12:37.514,272705,L
12:38.403,273025,L
12:39.286,273343,L
12:40.167,273660,L
12:41.069,273985,L
12:42.011,274324,L
12:42.933,274656,L
12:43.850,274986,L
12:44.758,275313,L
12:45.653,275635,L
12:46.522,275948,L
12:47.414,276269,L
12:48.364,276611,L
12:49.314,276953,L
12:50.217,277278,L
12:51.106,277598,L
12:51.989,277916,L
12:52.869,278233,L
12:53.825,278577,L
12:54.769,278917,L
12:55.689,279248,L
12:56.642,279591,L
12:57.536,279913,L
12:58.419,280231,L
12:59.325,280557,L
13:00.292,280905,L
13:01.264,281255,L
13:02.181,281585,L
13:03.097,281915,L
13:04.042,282255,L
13:04.947,282581,L
13:05.919,282931,L
13:06.897,283283,L
13:07.847,283625,L
13:08.806,283970,L
13:09.731,284303,L
13:10.647,284633,L
13:11.589,284972,L
13:12.611,285340,L
13:13.569,285685,L
13:14.506,286022,L
13:15.456,286364,L
13:16.372,286694,L
13:17.317,287034,L
13:18.300,287388,L
13:19.261,287734,L
13:20.228,288082,L
13:21.164,288419,L
13:22.083,288750,L
13:22.992,289077,L
13:23.969,289429,L
13:24.969,289789,L
13:25.928,290134,L
13:26.864,290471,L
13:27.789,290804,L
13:28.717,291138,L
13:29.692,291489,L
13:30.656,291836,L
13:31.619,292183,L
13:32.567,292524,L
13:33.522,292868,L
13:34.436,293197,L
13:35.372,293534,L
13:36.406,293906,L
13:37.383,294258,L
13:38.333,294600,L
13:39.275,294939,L
13:40.206,295274,L
13:41.153,295615,L
13:42.125,295965,L
13:43.108,296319,L
13:44.083,296670,L
13:45.031,297011,L
13:45.958,297345,L
13:46.875,297675,L
13:47.864,298031,L
13:48.861,298390,L
13:49.831,298739,L
13:50.778,299080,L
13:51.706,299414,L
13:52.647,299753,L
13:53.606,300098,L
13:54.586,300451,L
13:55.550,300798,L
13:56.508,301143,L
13:57.464,301487,L
13:58.381,301817,L
13:59.331,302159,L
14:00.350,302526,L
14:01.325,302877,L
14:02.264,303215,L
14:03.197,303551,L
14:04.142,303891,L
14:05.078,304228,L
14:06.058,304581,L
14:07.033,304932,L
14:08.014,305285,L
14:08.967,305628,L
14:09.892,305961,L
14:10.808,306291,L
14:11.786,306643,L
14:12.781,307001,L
14:13.747,307349,L
14:14.686,307687,L
14:15.628,308026,L
14:16.556,308360,L
14:17.508,308703,L
14:18.497,309059,L
14:19.467,309408,L
14:20.442,309759,L
14:21.392,310101,L
14:22.314,310433,L
14:23.250,310770,L
14:24.261,311134,L
14:25.250,311490,L
14:26.194,311830,L
14:27.133,312168,L
14:28.072,312506,L
14:29.008,312843,L
14:29.992,313197,L
14:30.969,313549,L
14:31.969,313909,L
14:32.925,314253,L
14:33.839,314582,L
14:34.764,314915,L
14:35.733,315264,L
14:36.736,315625,L
14:37.703,315973,L
14:38.647,316313,L
14:39.600,316656,L
14:40.517,316986,L
14:41.472,317330,L
14:42.467,317688,L
14:43.431,318035,L
14:44.417,318390,L
14:45.353,318727,L
14:46.272,319058,L
14:47.211,319396,L
14:48.208,319755,L
14:49.186,320107,L
14:50.125,320445,L
14:51.061,320782,L
14:52.003,321121,L
14:52.931,321455,L
14:53.911,321808,L
14:54.892,322161,L
14:55.881,322517,L
14:56.828,322858,L
14:57.736,323185,L
14:58.650,323514,L
14:59.614,323861,L
15:00.619,324223,L
15:01.583,324570,L
15:02.519,324907,L
15:03.494,325258,L
15:04.419,325591,L
15:05.358,325929,L
15:06.361,326290,L
15:07.342,326643,L
15:08.319,326995,L
15:09.253,327331,L
15:10.178,327664,L
15:11.128,328006,L
15:12.119,328363,L
15:13.100,328716,L
15:14.061,329062,L
15:15.011,329404,L
15:15.958,329745,L
15:16.886,330079,L
15:17.861,330430,L
15:18.842,330783,L
15:19.828,331138,L
15:20.758,331473,L
15:21.692,331809,L
15:22.594,332134,L
15:23.561,332482,L
15:24.575,332847,L
15:25.531,333191,L
15:26.494,333538,L
15:27.458,333885,L
15:28.383,334218,L
15:29.333,334560,L
15:30.319,334915,L
15:31.306,335270,L
15:32.272,335618,L
15:33.194,335950,L
15:34.125,336285,L
15:35.064,336623,L
15:36.061,336982,L
15:37.036,337333,L
15:37.989,337676,L
15:38.944,338020,L
15:39.889,338360,L
15:40.811,338692,L
15:41.775,339039,L
15:42.778,339400,L
15:43.758,339753,L
15:44.703,340093,L
15:45.633,340428,L
15:46.550,340758,L
15:47.533,341112,L
15:48.556,341480,L
15:49.522,341828,L
15:50.497,342179,L
15:51.458,342525,L
15:52.392,342861,L
15:53.331,343199,L
15:54.331,343559,L
15:55.331,343919,L
15:56.303,344269,L
15:57.258,344613,L
15:58.194,344950,L
15:59.167,345300,L
16:00.175,345663,L
16:01.164,346019,L
16:02.144,346372,L
16:03.103,346717,L
16:04.056,347060,L
16:04.994,347398,L
16:05.981,347753,L
16:07.003,348121,L
16:07.975,348471,L
16:08.925,348813,L
16:09.872,349154,L
16:10.797,349487,L
16:11.611,349780,L
16:12.625,350145,L
16:13.611,350500,L
16:14.614,350861,L
16:15.572,351206,L
16:16.500,351540,L
16:17.467,351888,L
16:18.469,352249,L
16:19.489,352616,L
16:20.453,352963,L
16:21.400,353304,L
16:22.347,353645,L
16:23.319,353995,L
16:24.322,354356,L
16:25.297,354707,L
16:26.258,355053,L
16:27.217,355398,L
16:28.164,355739,L
16:29.092,356073,L
16:30.100,356436,L
16:31.122,356804,L
16:32.089,357152,L
16:33.044,357496,L
16:33.983,357834,L
16:34.928,358174,L
16:35.939,358538,L
16:36.936,358897,L
16:37.914,359249,L
16:38.886,359599,L
16:39.839,359942,L
16:40.756,360272,L
16:41.750,360630,L
16:42.769,360997,L
16:43.769,361357,L
16:44.742,361707,L
16:45.683,362046,L
16:46.647,362393,L
16:47.644,362752,L
16:48.633,363108,L
16:49.622,363464,L
16:50.592,363813,L
16:51.556,364160,L
16:52.481,364493,L
16:53.453,364843,L
16:54.494,365218,L
16:55.478,365572,L
16:56.450,365922,L
16:57.397,366263,L
16:58.333,366600,L
16:59.317,366954,L
17:00.308,367311,L
17:01.286,367663,L
17:02.272,368018,L
17:03.222,368360,L
17:04.156,368696,L
17:05.097,369035,L
17:06.097,369395,L
17:07.117,369762,L
17:08.083,370110,L
17:09.022,370448,L
17:09.975,370791,L
17:10.911,371128,L
17:11.892,371481,L
17:12.883,371838,L
17:13.839,372182,L
17:14.814,372533,L
17:15.761,372874,L
17:16.669,373201,L
17:17.675,373563,L
17:18.692,373929,L
17:19.661,374278,L
17:20.614,374621,L
17:21.553,374959,L
17:22.483,375294,L
17:23.461,375646,L
17:24.464,376007,L
17:25.447,376361,L
17:26.436,376717,L
17:27.389,377060,L
17:28.317,377394,L
17:29.283,377742,L
17:30.292,378105,L
17:31.297,378467,L
17:32.272,378818,L
17:33.214,379157,L
17:34.183,379506,L
17:35.125,379845,L
17:36.119,380203,L
17:37.119,380563,L
17:38.089,380912,L
17:39.067,381264,L
17:40.008,381603,L
17:40.953,381943,L
17:41.978,382312,L
17:42.969,382669,L
17:43.925,383013,L
17:44.875,383355,L
17:45.869,383713,L
17:46.808,384051,L
17:47.792,384405,L
17:48.803,384769,L
17:49.786,385123,L
17:50.775,385479,L
17:51.708,385815,L
17:52.642,386151,L
17:53.619,386503,L
17:54.628,386866,L
17:55.617,387222,L
17:56.564,387563,L
17:57.525,387909,L
17:58.461,388246,L
17:59.428,388594,L
18:00.442,388959,L
18:01.422,389312,L
18:02.406,389666,L
18:03.361,390010,L
18:04.294,390346,L
18:05.247,390689,L
18:06.272,391058,L
18:07.269,391417,L
18:08.214,391757,L
18:09.167,392100,L
18:10.117,392442,L
18:11.072,392786,L
18:12.078,393148,L
18:13.075,393507,L
18:14.083,393870,L
18:15.044,394216,L
18:15.981,394553,L
18:16.928,394894,L
18:17.928,395254,L
18:18.953,395623,L
18:19.928,395974,L
18:20.883,396318,L
18:21.869,396673,L
18:22.808,397011,L
18:23.808,397371,L
18:24.814,397733,L
18:25.806,398090,L
18:26.781,398441,L
18:27.733,398784,L
18:28.661,399118,L
18:29.664,399479,L
18:30.678,399844,L
18:31.653,400195,L
18:32.608,400539,L
18:33.556,400880,L
18:34.494,401218,L
18:35.467,401568,L
18:36.469,401929,L
18:37.469,402289,L
18:38.436,402637,L
18:39.367,402972,L
18:40.297,403307,L
18:41.253,403651,L
18:42.269,404017,L
18:43.256,404372,L
18:44.208,404715,L
18:45.178,405064,L
18:46.125,405405,L
18:47.064,405743,L
18:48.053,406099,L
18:49.047,406457,L
18:50.033,406812,L
18:50.972,407150,L
18:51.906,407486,L
18:52.839,407822,L
18:53.842,408183,L
18:54.839,408542,L
18:55.808,408891,L
18:56.767,409236,L
18:57.719,409579,L
18:58.653,409915,L
18:59.633,410268,L
19:00.633,410628,L
19:01.633,410988,L
19:02.594,411334,L
19:03.525,411669,L
19:04.453,412003,L
19:05.442,412359,L
19:06.472,412730,L
19:07.450,413082,L
19:08.422,413432,L
19:09.397,413783,L
19:10.331,414119,L
19:11.289,414464,L
19:12.289,414824,L
19:13.289,415184,L
19:14.264,415535,L
19:15.211,415876,L
19:16.150,416214,L
19:17.114,416561,L
19:18.128,416926,L
19:19.117,417282,L
19:20.083,417630,L
19:21.036,417973,L
19:21.994,418318,L
19:22.925,418653,L
19:23.908,419007,L
19:24.931,419375,L
19:25.894,419722,L
19:26.844,420064,L
19:27.797,420407,L
19:28.714,420737,L
19:29.736,421105,L
19:30.736,421465,L
19:31.697,421811,L
19:32.675,422163,L
19:33.617,422502,L
19:34.544,422836,L
19:35.508,423183,L
19:36.508,423543,L
19:37.500,423900,L
19:38.469,424249,L
19:39.408,424587,L
19:40.336,424921,L
19:41.331,425279,L
19:42.328,425638,L
19:43.297,425987,L
19:44.267,426336,L
19:45.208,426675,L
19:46.164,427019,L
19:47.106,427358,L
19:48.094,427714,L
19:49.117,428082,L
19:50.086,428431,L
19:51.036,428773,L
19:51.981,429113,L
19:52.925,429453,L
19:53.947,429821,L
19:54.939,430178,L
19:55.908,430527,L
19:56.886,430879,L
19:57.844,431224,L
19:58.772,431558,L
19:59.775,431919,L
20:00.797,432287,L
20:01.794,432646,L
20:02.767,432996,L
20:03.714,433337,L
20:04.678,433684,L
20:05.689,434048,L
20:06.686,434407,L
20:07.678,434764,L
20:08.647,435113,L
20:09.614,435461,L
20:10.542,435795,L
20:11.528,436150,L
20:12.564,436523,L
20:13.556,436880,L
20:14.522,437228,L
20:15.467,437568,L
20:16.397,437903,L
20:17.389,438260,L
20:18.386,438619,L
20:19.375,438975,L
20:20.350,439326,L
20:21.300,439668,L
20:22.244,440008,L
20:23.192,440349,L
20:24.206,440714,L
20:25.214,441077,L
20:26.183,441426,L
20:27.139,441770,L
20:28.083,442110,L
20:29.047,442457,L
20:30.039,442814,L
20:31.033,443172,L
20:32.008,443523,L
20:32.978,443872,L
20:33.931,444215,L
20:34.864,444551,L
20:35.886,444919,L
20:36.897,445283,L
20:37.878,445636,L
20:38.836,445981,L
20:39.778,446320,L
20:40.736,446665,L
20:41.739,447026,L
20:42.750,447390,L
20:43.736,447745,L
20:44.719,448099,L
20:45.683,448446,L
20:46.614,448781,L
20:47.617,449142,L
20:48.639,449510,L
20:49.631,449867,L
20:50.597,450215,L
20:51.544,450556,L
20:52.508,450903,L
20:53.492,451257,L
20:54.492,451617,L
20:55.481,451973,L
20:56.458,452325,L
20:57.428,452674,L
20:58.358,453009,L
20:59.336,453361,L
21:00.372,453734,L
21:01.364,454091,L
21:02.322,454436,L
21:03.269,454777,L
21:04.225,455121,L
21:05.183,455466,L
21:06.189,455828,L
21:07.181,456185,L
21:08.169,456541,L
21:09.133,456888,L
21:10.058,457221,L
21:11.006,457562,L
21:12.011,457924,L
21:13.014,458285,L
21:13.989,458636,L
21:14.928,458974,L
21:15.883,459318,L
21:16.831,459659,L
21:17.822,460016,L
21:18.817,460374,L
21:19.800,460728,L
21:20.781,461081,L
21:21.714,461417,L
21:22.642,461751,L
21:23.647,462113,L
21:24.650,462474,L
21:25.622,462824,L
21:26.567,463164,L
21:27.519,463507,L
21:28.461,463846,L
21:29.442,464199,L
21:30.453,464563,L
21:31.436,464917,L
21:32.422,465272,L
21:33.367,465612,L
21:34.289,465944,L
21:35.269,466297,L
21:36.289,466664,L
21:37.292,467025,L
21:38.261,467374,L
21:39.225,467721,L
21:40.192,468069,L
21:41.158,468417,L
21:42.172,468782,L
21:43.172,469142,L
21:44.164,469499,L
21:45.139,469850,L
21:46.089,470192,L
21:47.044,470536,L
21:48.081,470909,L
21:49.103,471277,L
21:50.061,471622,L
21:51.036,471973,L
21:52.008,472323,L
21:52.969,472669,L
21:53.975,473031,L
21:54.989,473396,L
21:55.992,473757,L
21:56.953,474103,L
21:57.900,474444,L
21:58.842,474783,L
21:59.842,475143,L
22:00.867,475512,L
22:01.831,475859,L
22:02.794,476206,L
22:03.772,476558,L
22:04.694,476890,L
22:05.697,477251,L
22:06.692,477609,L
22:07.675,477963,L
22:08.650,478314,L
22:09.594,478654,L
22:10.517,478986,L
22:11.528,479350,L
22:12.536,479713,L
22:13.511,480064,L
22:14.486,480415,L
22:15.442,480759,L
22:16.381,481097,L
22:17.375,481455,L
22:18.375,481815,L
22:19.394,482182,L
22:20.378,482536,L
22:21.317,482874,L
22:22.256,483212,L
22:23.244,483568,L
22:24.283,483942,L
22:25.283,484302,L
22:26.256,484652,L
22:27.247,485009,L
22:28.194,485350,L
22:29.161,485698,L
22:30.178,486064,L
22:31.186,486427,L
22:32.181,486785,L
22:33.139,487130,L
22:34.092,487473,L
22:35.078,487828,L
22:36.108,488199,L
22:37.108,488559,L
22:38.094,488914,L
22:39.072,489266,L
22:40.033,489612,L
22:40.994,489958,L
22:42.000,490320,L
22:43.033,490692,L
22:44.022,491048,L
22:44.975,491391,L
22:45.928,491734,L
22:46.886,492079,L
22:47.925,492453,L
22:48.919,492811,L
22:49.892,493161,L
22:50.875,493515,L
22:51.811,493852,L
22:52.747,494189,L
22:53.747,494549,L
22:54.744,494908,L
22:55.742,495267,L
22:56.694,495610,L
22:57.642,495951,L
22:58.592,496293,L
22:59.594,496654,L
23:00.600,497016,L
23:01.586,497371,L
23:02.544,497716,L
23:03.511,498064,L
23:04.444,498400,L
23:05.417,498750,L
23:06.450,499122,L
23:07.447,499481,L
23:08.417,499830,L
23:09.375,500175,L
23:10.306,500510,L
23:11.319,500875,L
23:12.342,501243,L
23:13.322,501596,L
23:14.314,501953,L
23:15.286,502303,L
23:16.219,502639,L
23:17.186,502987,L
23:18.206,503354,L
23:19.214,503717,L
23:20.194,504070,L
23:21.161,504418,L
23:22.114,504761,L
23:23.097,505115,L
23:24.114,505481,L
23:25.117,505842,L
23:26.106,506198,L
23:27.086,506551,L
23:28.053,506899,L
23:29.014,507245,L
23:30.061,507622,L
23:31.094,507994,L
23:32.083,508350,L
23:33.064,508703,L
23:34.014,509045,L
23:35.003,509401,L
23:36.039,509774,L
23:37.044,510136,L
23:38.042,510495,L
23:39.036,510853,L
23:39.992,511197,L
23:40.939,511538,L
23:41.964,511907,L
23:42.983,512274,L
23:43.967,512628,L
23:44.933,512976,L
23:45.883,513318,L
23:46.856,513668,L
23:47.861,514030,L
23:48.858,514389,L
23:49.839,514742,L
23:50.814,515093,L
23:51.769,515437,L
23:52.714,515777,L
23:53.736,516145,L
23:54.758,516513,L
23:55.739,516866,L
23:56.703,517213,L
23:57.650,517554,L
23:58.611,517900,L
23:59.608,518259,L
24:00.628,518626,L
24:01.619,518983,L
24:02.600,519336,L
24:03.558,519681,L
24:04.494,520018,L
24:05.497,520379,L
24:06.525,520749,L
24:07.522,521108,L
24:08.492,521457,L
24:09.447,521801,L
24:10.406,522146,L
24:11.392,522501,L
24:12.411,522868,L
24:13.406,523226,L
24:14.400,523584,L
24:15.367,523932,L
24:16.300,524268,L
24:17.314,524633,L
24:18.342,525003,L
24:19.328,525358,L
24:20.317,525714,L
24:21.269,526057,L
24:22.228,526402,L
24:23.222,526760,L
24:24.242,527127,L
24:25.253,527491,L
24:26.256,527852,L
24:27.217,528198,L
24:28.156,528536,L
24:29.156,528896,L
24:30.183,529266,L
24:31.186,529627,L
24:32.164,529979,L
24:33.111,530320,L
24:34.078,530668,L
24:35.033,531012,L
24:36.033,531372,L
24:37.047,531737,L
24:38.033,532092,L
24:38.997,532439,L
24:39.944,532780,L
24:40.906,533126,L
24:41.928,533494,L
24:42.939,533858,L
24:43.908,534207,L
24:44.869,534553,L
24:45.842,534903,L
24:46.794,535246,L
24:47.811,535612,L
24:48.836,535981,L
24:49.831,536339,L
24:50.806,536690,L
24:51.753,537031,L
24:52.694,537370,L
24:53.717,537738,L
24:54.739,538106,L
24:55.725,538461,L
24:56.692,538809,L
24:57.678,539164,L
24:58.617,539502,L
24:59.625,539865,L
25:00.647,540233,L
25:01.644,540592,L
25:02.636,540949,L
25:03.586,541291,L
25:04.533,541632,L
25:05.553,541999,L
25:06.578,542368,L
25:07.556,542720,L
25:08.533,543072,L
25:09.519,543427,L
25:10.467,543768,L
25:11.478,544132,L
25:12.503,544501,L
25:13.514,544865,L
25:14.497,545219,L
25:15.456,545564,L
25:16.408,545907,L
25:17.408,546267,L
25:18.464,546647,L
25:19.458,547005,L
25:20.442,547359,L
25:21.453,547723,L
25:22.403,548065,L
25:23.403,548425,L
25:24.456,548804,L
25:25.456,549164,L
25:26.447,549521,L
25:27.406,549866,L
25:28.369,550213,L
25:29.292,550545,L
25:30.375,550935,L
25:31.364,551291,L
25:32.425,551673,L
25:32.778,551800,+
25:33.133,551928,V
25:34.428,552394,L
25:34.572,552446,|
25:34.767,552516,|
25:35.042,552615,V
25:36.458,553125,L
25:37.183,553386,V
25:38.536,553873,L
25:39.192,554109,V
25:40.492,554577,L
25:40.783,554682,[
25:40.944,554740,+
25:41.183,554826,!
25:41.581,554969,!
25:41.950,555102,!
25:42.294,555226,!
25:42.608,555339,!
25:42.944,555460,!
25:43.258,555573,!
25:43.633,555708,!
25:43.900,555804,!
25:44.300,555948,!
25:44.575,556047,!
25:44.897,556163,!
25:45.131,556247,!
25:45.447,556361,!
25:45.783,556482,!
25:46.103,556597,!
25:46.397,556703,!
25:46.733,556824,!
25:47.047,556937,!
25:47.292,557025,!
25:47.661,557158,!
25:48.019,557287,!
25:48.333,557400,!
25:48.664,557519,!
25:48.964,557627,!
25:49.303,557749,!
25:49.619,557863,!
25:49.953,557983,!
25:50.269,558097,!
25:50.569,558205,!
25:50.858,558309,!
25:51.142,558411,!
25:51.450,558522,!
25:51.728,558622,!
25:52.000,558720,!
25:52.289,558824,!
25:52.617,558942,!
25:52.936,559057,!
25:53.211,559156,!
25:53.517,559266,!
25:53.869,559393,!
25:54.122,559484,!
25:54.386,559579,!
25:54.694,559690,!
25:55.025,559809,!
25:55.292,559905,!
25:55.572,560006,!
25:55.900,560124,!
25:56.222,560240,!
25:56.472,560330,!
25:56.778,560440,!
25:57.094,560554,!
25:57.386,560659,!
25:57.686,560767,!
25:57.950,560862,!
25:58.181,560945,!
25:58.536,561073,!
25:58.822,561176,!
25:59.031,561251,!
25:59.406,561386,!
25:59.736,561505,!
26:00.050,561618,!
26:00.369,561733,!
26:00.647,561833,!
26:00.975,561951,!
26:01.275,562059,!
26:01.542,562155,!
26:01.842,562263,!
26:02.117,562362,!
26:02.417,562470,!
26:02.689,562568,!
26:02.972,562670,!
26:03.278,562780,!
26:03.531,562871,!
26:03.800,562968,!
26:04.061,563062,!
26:04.333,563160,!
26:04.636,563269,!
26:04.917,563370,!
26:05.228,563482,!
26:05.525,563589,!
26:05.800,563688,!
26:06.111,563800,!
26:06.386,563899,!
26:06.703,564013,!
26:06.975,564111,!
26:07.225,564201,!
26:07.497,564299,!
26:07.806,564410,!
26:08.053,564499,!
26:08.364,564611,!
26:08.656,564716,!
26:08.917,564810,!
26:09.208,564915,!
26:09.456,565004,!
26:09.753,565111,!
26:10.000,565200,!
26:10.253,565291,!
26:10.506,565382,!
26:10.783,565482,!
26:11.078,565588,!
26:11.367,565692,!
26:11.644,565792,!
26:11.939,565898,!
26:12.219,565999,!
26:12.519,566107,!
26:12.800,566208,!
26:13.069,566305,!
26:13.353,566407,!
26:13.644,566512,!
26:13.919,566611,!
26:14.192,566709,!
26:14.458,566805,!
26:14.719,566899,!
26:14.994,566998,!
26:15.258,567093,!
26:15.536,567193,!
26:15.803,567289,!
26:16.067,567384,!
26:16.331,567479,!
26:16.614,567581,!
26:16.889,567680,!
26:17.147,567773,!
26:17.419,567871,!
26:17.692,567969,!
26:17.989,568076,!
26:18.261,568174,!
26:18.542,568275,!
26:18.825,568377,!
26:19.072,568466,!
26:19.350,568566,!
26:19.633,568668,!
26:19.908,568767,!
26:20.200,568872,!
26:20.464,568967,!
26:20.717,569058,!
26:21.000,569160,!
26:21.250,569250,!
26:21.500,569340,!
26:21.767,569436,!
26:22.044,569536,!
26:22.278,569620,!
26:22.522,569708,!
26:22.808,569811,!
26:23.089,569912,!
26:23.381,570017,!
26:23.628,570106,!
26:23.781,570161,!
26:23.925,570213,!
26:24.131,570287,!
26:24.294,570346,!
26:24.558,570441,!
26:24.758,570513,!
26:25.053,570619,!
26:25.319,570715,!
26:25.564,570803,!
26:25.831,570899,!
26:26.069,570985,!
26:26.356,571088,!
26:26.614,571181,!
26:26.883,571278,!
26:27.144,571372,!
26:27.408,571467,!
26:27.653,571555,!
26:27.928,571654,!
26:28.300,571788,!
26:28.558,571881,!
26:28.867,571992,!
26:29.258,572133,!
26:29.686,572287,!
26:29.847,572345,!
26:30.131,572447,!
26:30.378,572536,!
26:30.636,572629,!
26:30.906,572726,!
26:31.167,572820,!
26:31.456,572924,!
26:31.758,573033,!
26:32.028,573130,!
26:32.283,573222,!
26:32.544,573316,!
26:32.775,573399,!
26:33.014,573485,!
26:33.331,573599,!
26:33.700,573732,!
26:33.878,573796,!
26:34.147,573893,!
26:34.417,573990,!
26:34.703,574093,!
26:34.981,574193,!
26:35.200,574272,!
26:35.503,574381,!
26:35.792,574485,!
26:35.994,574558,!
26:36.283,574662,!
26:36.567,574764,!
26:36.839,574862,!
26:37.117,574962,!
26:37.383,575058,!
26:37.675,575163,!
26:37.953,575263,!
26:38.197,575351,!
26:38.461,575446,!
26:38.606,575498,!
26:38.886,575599,!
26:39.189,575708,!
26:39.528,575830,!
26:39.939,575978,!
26:40.250,576090,!
26:40.567,576204,!
26:40.858,576309,!
26:41.125,576405,!
26:41.386,576499,!
26:41.797,576647,!
26:42.167,576780,!
26:42.536,576913,!
26:42.853,577027,!
26:43.139,577130,!
26:43.364,577211,!
26:43.664,577319,!
26:43.931,577415,!
26:44.228,577522,!
26:44.397,577583,!
26:44.772,577718,!
26:45.011,577804,!
26:45.308,577911,!
26:45.550,577998,!
26:45.819,578095,!
26:46.053,578179,!
26:46.308,578271,!
26:46.603,578377,!
26:46.781,578441,!
26:47.153,578575,!
26:47.389,578660,!
26:47.906,578846,!
26:48.197,578951,!
26:48.472,579050,!
26:48.764,579155,!
26:49.042,579255,!
26:49.297,579347,!
26:49.547,579437,!
26:49.844,579544,!
26:50.094,579634,!
26:50.361,579730,!
26:50.636,579829,!
26:50.864,579911,!
26:51.167,580020,!
26:51.481,580133,!
26:51.750,580230,!
26:52.058,580341,!
26:52.292,580425,!
26:52.592,580533,!
26:52.883,580638,!
26:53.103,580717,!
26:53.389,580820,!
26:53.536,580873,!
26:53.861,580990,!
26:54.067,581064,!
26:54.364,581171,!
26:54.611,581260,!
26:54.886,581359,!
26:55.189,581468,!
26:55.425,581553,!
26:55.711,581656,!
26:55.989,581756,!
26:56.261,581854,!
26:56.558,581961,!
26:56.881,582077,!
26:57.133,582168,!
26:57.392,582261,!
26:57.625,582345,!
26:57.894,582442,!
26:58.161,582538,!
26:58.425,582633,!
26:58.711,582736,!
26:58.950,582822,!
26:59.211,582916,!
26:59.456,583004,!
26:59.750,583110,!
27:00.036,583213,!
27:00.267,583296,!
27:00.547,583397,!
27:00.831,583499,!
27:01.081,583589,!
27:01.358,583689,!
27:01.644,583792,!
27:01.847,583865,!
27:02.156,583976,!
27:02.467,584088,!
27:02.756,584192,!
27:02.992,584277,!
27:03.286,584383,!
27:03.544,584476,!
27:03.819,584575,!
27:04.006,584642,!
27:04.244,584728,!
27:04.561,584842,!
27:04.836,584941,!
27:05.150,585054,!
27:05.422,585152,!
27:05.653,585235,!
27:05.897,585323,!
27:06.264,585455,!
27:06.497,585539,!
27:06.767,585636,!
27:07.031,585731,!
27:07.369,585853,!
27:07.833,586020,!
27:08.128,586126,!
27:08.403,586225,!
27:08.708,586335,!
27:08.950,586422,!
27:09.225,586521,!
27:09.525,586629,!
27:09.808,586731,!
27:10.056,586820,!
27:10.383,586938,!
27:10.753,587071,!
27:11.167,587220,!
27:11.642,587391,!
27:11.864,587471,!
27:12.169,587581,!
27:12.478,587692,!
27:12.733,587784,!
27:12.986,587875,!
27:13.294,587986,!
27:13.589,588092,!
27:13.856,588188,!
27:14.172,588302,!
27:14.450,588402,!
27:14.744,588508,!
27:15.042,588615,!
27:15.436,588757,!
27:15.847,588905,!
27:16.242,589047,!
27:16.572,589166,!
27:16.878,589276,!
27:17.250,589410,!
27:17.603,589537,!
27:17.944,589660,!
27:18.683,589926,]
27:19.303,590149,+
27:20.514,590585,E
27:22.792,591405,E
27:25.300,592308,E
27:26.781,592841,E
27:28.008,593283,E
27:29.169,593701,E
27:30.381,594137,E
27:31.542,594555,E
27:32.675,594963,E
27:33.778,595360,E
27:34.917,595770,E
27:36.111,596200,E
27:37.236,596605,E
27:38.364,597011,E
27:39.461,597406,E
27:40.556,597800,E
27:41.700,598212,E
27:42.889,598640,E
27:44.031,599051,E
27:45.142,599451,E
27:46.208,599835,E
27:47.344,600244,E
27:48.508,600663,E
27:49.619,601063,E
27:50.703,601453,E
27:51.764,601835,E
27:52.789,602204,E
27:53.867,602592,E
27:54.936,602977,E
27:55.978,603352,E
27:56.967,603708,E
27:57.908,604047,E
27:58.892,604401,E
27:59.889,604760,E
28:00.861,605110,E
28:01.822,605456,E
28:02.750,605790,E
28:03.683,606126,E
28:04.581,606449,E
28:05.525,606789,E
28:06.492,607137,E
28:07.403,607465,E
28:08.292,607785,E
28:09.153,608095,E
28:10.000,608400,E
28:10.881,608717,E
28:11.797,609047,E
28:12.697,609371,E
28:13.561,609682,E
28:14.433,609996,E
28:15.297,610307,E
28:16.119,610603,E
28:16.967,610908,E
28:17.861,611230,E
28:18.750,611550,E
28:19.628,611866,E
28:20.475,612171,E
28:21.303,612469,E
28:22.822,613016,E
28:23.961,613426,E
28:24.861,613750,E
28:26.369,614293,E
28:27.539,614714,E
28:28.417,615030,E
28:29.356,615368,E
28:30.356,615728,E
28:31.303,616069,E
28:32.247,616409,E
28:33.169,616741,E
28:34.081,617069,E
28:35.078,617428,E
28:36.025,617769,E
28:36.994,618118,E
28:37.964,618467,E
28:38.956,618824,E
28:39.931,619175,E
28:40.942,619539,E
28:41.978,619912,E
28:43.036,620293,E
28:44.075,620667,E
28:45.058,621021,E
28:46.075,621387,E
28:47.106,621758,E
28:48.183,622146,E
28:49.219,622519,E
28:50.236,622885,E
28:51.258,623253,E
28:52.197,623591,E
28:53.197,623951,E
28:54.272,624338,E
28:55.267,624696,E
28:56.247,625049,E
28:57.183,625386,E
28:58.103,625717,E
28:59.083,626070,E
29:00.044,626416,E
29:00.978,626752,E
29:01.917,627090,E
29:02.828,627418,E
29:03.708,627735,E
29:04.553,628039,E
29:05.467,628368,E
29:06.397,628703,E
29:07.317,629034,E
29:08.189,629348,E
29:08.561,629482,+
29:08.936,629617,L
29:09.814,629933,L
29:10.439,630158,A
29:11.311,630472,L
29:11.958,630705,A
29:12.528,630910,A
29:13.311,631192,L
29:13.781,631361,+
29:13.944,631420,A
29:14.467,631608,A
29:14.972,631790,A
29:15.442,631959,A
29:15.911,632128,A
29:16.358,632289,A
29:16.836,632461,A
29:17.325,632637,A
29:17.831,632819,A
29:18.322,632996,A
29:18.808,633171,A
29:19.297,633347,A
29:19.775,633519,A
29:20.250,633690,A
29:20.722,633860,A
29:21.194,634030,A
29:21.672,634202,A
29:22.150,634374,A
29:22.661,634558,A
29:23.169,634741,A
29:23.686,634927,A
29:24.200,635112,A
29:24.703,635293,A
29:25.211,635476,A
29:25.733,635664,A
29:26.239,635846,A
29:26.725,636021,A
29:27.197,636191,A
29:27.667,636360,A
29:28.128,636526,A
29:28.633,636708,A
29:29.153,636895,A
29:29.678,637084,A
29:30.181,637265,A
29:30.697,637451,A
29:31.189,637628,A
29:31.694,637810,A
29:32.194,637990,A
29:32.675,638163,A
29:33.164,638339,A
29:33.644,638512,A
29:34.094,638674,A
29:34.581,638849,A
29:35.089,639032,A
29:35.631,639227,A
29:36.147,639413,A
29:36.639,639590,A
29:37.117,639762,A
29:37.628,639946,A
29:38.111,640120,A
29:38.636,640309,A
29:39.097,640475,A
29:39.575,640647,A
29:40.036,640813,A
29:40.517,640986,A
29:41.017,641166,A
29:41.567,641364,A
29:42.072,641546,A
29:42.578,641728,A
29:43.072,641906,A
29:43.572,642086,A
29:44.042,642255,A
29:44.533,642432,A
29:45.017,642606,A
29:45.514,642785,A
29:46.000,642960,A
29:46.483,643134,A
29:46.964,643307,A
29:47.486,643495,A
29:47.992,643677,A
29:48.500,643860,A
29:49.006,644042,A
29:49.511,644224,A
29:50.006,644402,A
29:50.500,644580,A
29:50.967,644748,A
29:51.453,644923,A
29:51.925,645093,A
29:52.425,645273,A
29:52.903,645445,A
29:53.422,645632,A
29:53.936,645817,A
29:54.472,646010,A
29:54.978,646192,A
29:55.489,646376,A
29:55.953,646543,A
29:56.456,646724,A
29:56.961,646906,A
29:57.478,647092,A
29:57.933,647256,A
29:58.425,647433,A
29:58.933,647616,A
29:59.464,647807,A
29:59.969,647989,A
30:00.461,648166,A
30:00.989,648356,A
30:01.517,648546,A
30:02.025,648729,A
30:02.497,648899,A
30:03.003,649081,A
30:03.506,649262,A
30:03.975,649431,A
30:04.450,649602,A
30:04.997,649799,A
